11.44,51.55,36.93,10
11.43,51.58,36.97,10
11.43,51.60,36.94,10
11.46,51.59,36.93,9
11.46,51.62,36.95,10
11.50,51.66,36.91,9
11.55,51.65,36.84,8
11.57,51.63,36.80,6
11.56,51.62,36.80,7
11.53,51.63,36.80,8
11.48,51.63,36.79,4
11.45,51.62,36.80,5
11.40,51.63,36.83,12
11.39,51.63,36.83,9
11.40,51.60,36.83,8
11.43,51.58,36.86,11
11.43,51.62,36.88,10
11.42,51.65,36.92,7
11.43,51.70,36.91,6
11.44,51.73,36.89,8
11.44,51.75,36.87,9
11.44,51.77,36.88,7
11.45,51.79,36.88,10
11.48,51.72,36.94,12
11.44,51.74,37.06,7
11.44,51.77,37.02,6
11.49,51.73,36.99,7
11.49,51.76,37.01,6
11.45,51.79,37.06,3
11.45,51.80,37.10,6
11.47,51.81,37.13,12
11.46,51.81,37.11,9
11.45,51.84,37.29,7
11.44,51.91,37.40,8
11.41,51.94,37.59,7
11.34,52.12,37.52,3
11.29,52.13,37.47,4
11.38,52.15,37.45,8
11.40,52.19,37.47,7
11.40,52.25,37.46,7
11.41,52.25,37.41,9
11.43,52.21,37.30,11
11.42,52.20,37.28,10
11.44,52.21,37.27,10
11.48,52.22,37.24,13
11.47,52.22,37.22,15
11.47,52.24,37.17,15
11.47,52.23,37.10,14
11.48,52.22,37.08,14
11.46,52.25,37.11,9
11.46,52.28,37.15,9
11.48,52.30,37.16,8
11.36,52.18,37.19,5
11.34,52.33,37.20,4
11.28,52.35,37.21,7
11.37,52.32,37.16,8
11.46,52.33,37.13,4
11.46,52.35,37.18,6
11.49,52.37,37.15,9
11.53,52.36,37.13,12
11.58,52.36,37.10,8
11.60,52.38,37.07,8
11.63,52.37,37.04,9
11.68,52.39,37.11,7
11.71,52.40,37.10,11
11.74,52.36,37.49,12
11.73,52.33,38.15,12
11.76,52.55,38.62,9
11.82,52.41,38.72,13
12.30,52.27,38.62,14
12.61,52.40,38.78,10
12.57,52.46,39.01,10
12.49,52.51,39.11,116
12.59,52.41,38.84,108
12.74,52.24,38.56,91
12.79,52.15,38.32,78
12.81,52.10,37.86,68
12.90,51.97,37.41,55
13.03,51.78,37.07,43
13.05,51.73,37.01,41
13.02,51.76,36.91,37
12.97,51.75,36.84,28
12.99,51.64,36.68,27
13.04,51.57,36.63,25
13.04,51.56,36.64,24
13.00,51.57,36.67,18
13.00,51.57,36.61,19
13.02,51.56,36.61,22
13.04,51.58,36.62,18
13.02,51.52,37.09,15
13.06,51.79,37.13,14
13.00,51.85,37.64,21
13.09,52.06,38.42,16
13.50,52.61,38.89,14
14.18,52.76,38.65,15
14.86,52.71,38.36,13
14.81,52.79,38.83,16
14.70,53.06,39.01,16
14.66,53.19,38.73,16
14.80,53.08,38.72,14
15.16,53.02,38.69,13
15.44,52.96,38.87,10
15.55,53.11,39.29,7
15.72,53.49,39.51,4
15.87,53.63,39.32,5
16.09,53.54,39.00,4
16.30,53.39,38.55,5
16.36,53.26,38.25,2
16.25,53.20,38.09,1
16.05,53.34,37.92,1
15.81,53.39,37.48,0
15.44,53.12,36.46,0
15.10,52.97,35.81,5
14.56,52.73,35.24,3
14.01,52.58,34.76,1
13.67,52.46,34.43,1
13.49,52.40,34.13,2
13.30,52.48,33.91,0
13.27,52.55,33.48,4
13.26,52.47,33.30,6
13.26,52.54,33.26,4
13.30,52.68,33.20,1
13.14,52.64,33.12,7
12.95,52.72,32.95,9
12.74,52.79,32.94,5
12.61,52.82,32.89,4
12.71,52.85,32.83,6
12.73,52.67,32.75,5
12.57,52.40,32.79,5
12.22,52.18,33.06,4
11.93,51.82,32.88,7
11.22,51.10,33.28,4
10.55,50.11,33.40,2
10.65,49.57,33.20,10
11.63,49.53,32.47,10
13.00,49.73,31.53,9
14.05,49.78,31.31,8
14.81,49.86,31.41,8
15.45,49.99,31.54,3
16.39,50.34,30.47,2
16.49,50.87,30.83,3
16.19,51.99,31.22,4
16.54,53.73,30.19,3
17.88,55.02,28.91,3
18.51,55.19,26.59,8
19.26,55.15,26.45,9
19.43,55.08,26.48,7
19.48,54.10,26.48,9
19.89,52.94,25.93,7
20.86,52.30,25.52,4
21.53,52.55,25.37,17
21.68,53.32,24.59,18
21.00,53.94,25.00,17
20.05,54.08,24.83,13
19.56,54.59,24.60,11
19.64,54.44,24.51,14
19.16,54.12,24.73,9
18.13,54.37,25.35,8
17.65,54.49,25.54,12
17.56,54.57,25.65,15
16.93,54.31,27.66,13
17.07,53.47,30.93,17
19.99,50.52,27.36,23
23.48,46.89,25.47,18
25.62,42.38,22.14,17
25.61,39.68,20.54,20
24.95,39.96,20.40,21
24.53,40.12,18.22,28
24.48,39.87,16.30,33
24.58,40.23,15.05,41
24.13,40.30,14.84,45
24.23,40.70,13.15,50
24.83,40.05,12.56,55
25.24,40.18,11.64,61
25.65,40.07,10.39,86
26.13,40.00,9.08,99
26.74,39.92,9.04,102
29.02,40.53,7.01,113
31.22,39.73,4.32,144
32.92,37.36,2.61,207
33.66,35.51,2.56,261
34.27,35.13,2.98,318
36.33,34.84,2.43,304
40.29,34.66,-0.27,297
40.73,34.99,-0.44,285
37.70,34.49,1.89,302
36.30,33.15,2.95,304
37.59,32.82,3.18,325
41.02,35.21,3.05,328
41.38,38.27,4.36,317
40.99,38.75,5.90,283
42.49,38.36,6.55,317
44.37,39.49,7.84,326
46.04,41.51,8.26,322
47.06,43.42,9.64,338
47.54,44.19,11.42,360
49.58,43.40,11.76,418
51.66,43.10,12.05,363
52.08,44.65,13.14,364
52.01,45.65,13.88,342
52.35,46.19,14.17,352
52.52,46.22,14.43,320
52.26,46.31,15.42,358
52.62,47.30,16.16,397
53.03,47.94,15.60,402
52.52,48.55,16.16,400
51.92,48.34,17.32,461
52.41,47.90,17.54,416
53.10,49.21,17.67,424
52.85,49.28,16.32,408
52.30,49.38,16.14,463
51.21,49.50,17.59,481
51.28,49.07,17.52,458
52.03,49.76,17.49,456
51.83,49.80,16.07,455
50.87,49.50,15.47,445
49.64,48.66,16.67,544
49.65,48.43,17.34,511
50.23,49.33,17.32,546
50.14,49.36,15.77,533
49.38,48.70,15.04,611
48.35,47.89,15.33,700
47.80,47.25,16.38,625
48.09,48.01,17.30,612
48.62,47.49,14.85,530
47.62,47.20,14.41,479
45.98,46.61,14.27,476
45.10,46.20,15.37,495
45.04,46.53,16.06,487
45.77,46.75,14.85,459
45.06,46.47,13.77,493
43.57,46.18,13.82,465
42.82,45.21,14.50,514
42.50,46.04,15.78,492
43.30,46.26,14.36,444
43.06,46.45,13.93,447
41.86,45.70,12.89,451
40.92,45.99,14.37,487
40.55,46.32,15.26,454
41.22,46.22,15.47,501
41.83,45.85,13.92,437
40.88,45.19,13.11,412
40.32,44.85,13.72,453
39.23,43.76,15.22,437
39.93,43.06,14.87,503
40.53,42.98,13.80,524
39.45,42.76,13.09,487
38.28,42.74,13.27,452
37.43,42.96,14.37,387
37.69,43.01,14.77,377
38.42,43.24,14.06,389
37.85,43.43,12.93,368
36.46,43.06,12.77,345
35.71,42.14,13.00,367
34.77,42.86,14.21,317
34.24,42.74,14.29,335
34.93,42.33,12.11,300
33.65,42.49,11.67,250
32.02,41.68,10.22,233
30.23,40.84,10.98,225
28.40,39.63,11.20,192
26.84,38.73,11.57,227
25.14,37.66,11.41,209
23.45,36.38,10.82,194
21.42,35.05,9.62,169
19.22,32.84,8.11,160
16.00,30.19,7.82,144
11.33,27.52,9.39,134
7.93,26.14,10.01,131
5.68,24.52,9.96,118
2.77,22.52,10.80,104
0.15,20.99,11.07,96
-2.07,19.34,11.26,90
-5.19,16.78,11.64,96
-8.64,15.66,13.29,81
-12.16,15.34,14.57,71
-16.05,13.08,14.71,66
-19.38,10.09,14.07,64
-22.32,6.44,13.74,61
-25.60,2.95,14.78,63
-28.81,0.95,17.37,84
-32.25,-0.74,18.37,75
-36.42,-1.83,22.33,71
-40.76,0.18,25.45,77
-44.63,3.19,27.52,70
-45.51,4.15,26.56,58
-45.59,3.73,24.74,55
-45.91,3.63,23.76,42
-47.90,4.44,25.01,36
-50.68,5.92,27.04,36
-52.27,6.98,28.06,37
-52.91,6.86,27.46,41
-53.35,6.57,27.16,39
-53.86,6.56,27.10,33
-54.98,6.75,27.49,33
-56.29,7.24,28.02,30
-57.17,7.84,28.21,27
-57.58,8.34,28.07,22
-57.61,9.03,27.92,19
-57.26,9.66,27.76,27
-56.90,9.90,27.44,24
-56.74,9.93,27.30,25
-56.51,9.92,27.09,19
-56.09,9.78,26.73,31
-55.93,9.64,26.65,30
-55.81,10.00,26.68,27
-55.66,10.37,26.65,22
-55.49,10.50,26.41,33
-55.62,10.16,26.11,30
-55.61,10.27,26.11,29
-55.39,10.51,26.28,28
-55.11,10.59,26.40,28
-54.86,10.85,26.63,28
-54.62,11.56,26.98,26
-54.51,12.07,27.10,25
-54.26,12.57,27.13,28
-54.11,13.07,27.26,29
-54.08,13.50,27.53,22
-54.04,13.82,27.67,20
-54.01,14.06,27.72,26
-53.87,14.42,27.59,27
-53.61,14.85,27.48,28
-53.44,15.15,27.38,23
-53.25,15.53,27.26,29
-53.09,15.82,27.24,30
-52.99,16.08,27.39,24
-53.00,16.07,27.49,22
-52.32,16.35,27.19,19
-51.45,16.57,26.62,16
-50.34,16.72,26.15,14
-49.59,16.97,26.21,15
-48.97,17.34,26.64,16
-47.83,17.85,28.45,19
-44.73,18.38,27.51,21
-41.73,18.58,26.27,28
-38.00,19.11,23.38,45
-33.74,20.22,22.74,51
-30.23,20.37,23.71,70
-26.97,19.85,24.63,88
-23.64,19.87,23.02,122
-18.36,21.77,23.71,120
-13.71,23.99,26.20,134
-11.41,23.85,28.81,170
-8.67,23.46,32.73,198
-5.39,25.33,36.98,190
-2.32,26.52,40.72,197
2.51,27.46,41.82,180
7.39,27.67,41.67,184
10.17,27.23,42.62,184
11.82,28.11,44.56,256
14.31,30.32,44.59,259
15.64,31.42,44.81,264
17.13,32.25,45.13,275
19.93,32.46,44.35,289
21.84,33.36,44.02,240
22.48,34.48,43.98,228
23.63,35.96,43.87,269
23.86,36.49,44.29,240
25.03,37.02,44.59,215
26.63,37.31,43.69,210
28.61,36.80,42.50,229
29.71,36.97,41.57,207
30.05,37.75,41.16,231
29.83,39.01,41.55,234
30.26,38.88,40.90,255
31.96,38.64,39.85,224
33.04,38.24,38.94,209
33.46,38.40,38.78,281
33.04,39.63,39.63,267
33.09,39.29,39.71,311
34.58,38.84,39.19,327
35.95,38.31,37.92,294
35.84,38.10,37.40,327
36.21,38.61,37.10,328
35.59,38.87,37.65,358
35.53,39.39,38.46,369
37.11,38.13,36.97,323
38.46,37.61,36.07,328
38.71,36.36,35.66,312
38.35,38.12,36.40,284
37.66,37.69,37.03,299
38.22,37.28,37.44,336
40.06,35.51,35.59,298
40.65,34.55,34.91,328
40.64,34.61,33.37,369
39.61,35.14,33.54,359
38.32,34.32,34.59,340
39.50,34.22,34.75,353
41.20,33.34,32.97,307
41.24,32.29,31.44,286
40.20,32.42,30.81,388
38.19,32.50,32.13,447
38.19,32.96,32.87,454
39.81,32.85,32.47,491
41.27,31.64,30.44,412
40.56,30.46,29.39,420
39.46,28.78,29.04,399
38.12,30.76,30.72,355
38.26,30.92,30.94,372
40.79,29.86,29.13,364
41.40,28.78,28.05,350
40.20,26.27,27.01,380
39.66,29.00,28.12,431
38.30,27.34,29.42,420
38.95,26.37,29.61,390
41.10,24.64,27.50,352
41.13,24.37,27.32,331
40.50,24.58,25.43,335
38.66,25.22,26.08,338
37.21,23.86,26.83,343
38.62,25.00,27.16,353
40.29,23.62,24.91,314
40.57,23.67,23.68,285
39.28,22.94,22.40,329
37.64,23.38,23.54,290
37.02,23.87,24.51,255
37.98,24.14,24.28,240
39.58,23.38,23.13,245
39.94,23.13,21.99,220
39.04,22.47,20.97,259
38.25,21.83,20.34,263
36.71,22.51,21.10,289
35.61,23.68,21.67,251
35.67,24.38,21.52,238
36.95,24.29,19.66,195
37.29,23.57,17.72,158
36.76,22.49,15.38,137
35.64,21.36,12.39,136
33.07,20.46,10.42,123
29.50,19.33,9.24,105
25.63,18.83,8.57,90
22.68,18.54,7.78,81
20.63,17.29,6.28,72
19.00,16.28,5.33,67
16.30,15.11,4.98,68
13.12,14.02,5.05,68
10.04,13.50,5.77,56
6.81,13.64,7.74,45
2.89,16.48,12.53,41
-0.79,19.77,16.03,38
-3.83,21.13,18.00,31
-6.06,20.92,17.62,30
-7.78,20.59,17.64,29
-9.73,22.63,20.39,22
-12.99,27.30,23.54,21
-16.22,29.50,26.74,22
-20.24,31.17,29.79,22
-23.20,32.44,31.52,20
-23.93,32.99,31.89,23
-24.59,33.32,33.88,20
-25.83,33.94,34.75,18
-26.03,35.29,32.35,11
-24.05,36.92,28.84,7
-20.24,38.60,25.16,13
-17.46,39.39,21.71,15
-16.72,39.77,21.56,10
-17.49,39.31,21.31,8
-18.49,37.53,17.98,4
-21.29,34.01,17.59,12
-25.20,32.53,17.44,7
-28.85,34.58,18.20,6
-32.00,36.14,18.86,3
-34.37,37.09,19.66,3
-36.13,37.91,21.41,1
-37.49,38.50,22.26,0
-38.43,39.17,21.61,0
-38.65,40.94,21.44,0
-39.38,42.65,21.65,0
-40.29,42.98,21.78,0
-40.34,43.08,21.59,0
-40.03,43.11,22.20,0
-39.92,43.74,23.72,0
-39.65,44.85,23.07,1
-38.85,45.61,21.60,0
-37.50,45.72,19.62,0
-36.09,45.54,18.93,0
-34.44,45.26,17.47,0
-32.63,45.49,15.52,0
-31.22,45.85,15.33,1
-32.01,45.30,15.76,11
-35.01,44.25,18.45,8
-37.15,44.05,19.37,10
-36.58,44.10,17.13,12
-35.18,43.85,13.34,13
-34.69,43.52,12.17,12
-35.59,43.84,12.78,18
-37.91,44.93,13.97,15
-40.45,46.24,14.96,13
-42.51,47.97,15.98,15
-43.17,49.67,15.66,13
-42.93,50.86,14.06,10
-42.44,51.61,12.80,17
-42.58,52.78,11.84,17
-42.71,53.82,12.14,11
-42.47,53.59,13.09,5
-40.10,54.52,10.84,4
-36.89,54.59,9.83,2
-33.81,52.94,6.98,0
-31.63,50.31,7.05,4
-29.95,47.28,7.98,5
-27.76,43.56,7.42,5
-24.39,38.23,4.14,8
-20.86,36.74,2.00,6
-19.49,38.45,3.38,9
-19.25,40.16,3.63,7
-17.89,41.05,2.37,7
-16.24,41.13,1.02,8
-15.25,40.93,0.83,10
-14.99,40.64,1.48,8
-14.90,39.92,1.48,8
-14.92,39.21,1.77,8
-14.87,38.79,2.00,8
-14.51,38.29,2.09,11
-14.20,37.76,2.69,15
-14.17,37.06,3.65,12
-14.39,36.11,5.11,10
-14.72,35.14,5.89,10
-14.76,34.65,6.76,10
-14.73,34.27,8.35,8
-15.06,33.74,9.57,8
-15.62,33.15,11.25,7
-16.52,32.41,13.33,7
-17.35,31.99,15.19,8
-17.92,31.75,16.16,2
-18.27,31.50,16.95,7
-18.65,31.07,17.57,5
-19.21,30.59,18.44,4
-19.75,30.36,19.21,1
-20.07,30.44,19.91,6
-20.27,30.56,20.41,4
-20.60,30.34,20.56,1
-20.92,29.81,20.74,4
-21.43,29.49,20.91,5
-21.94,29.35,21.44,6
-22.53,29.02,21.54,5
-23.13,28.55,21.87,5
-23.52,28.36,22.27,1
-23.57,28.16,22.35,0
-23.56,27.67,22.53,0
-23.43,27.02,22.57,0
-23.33,26.64,22.68,0
-23.42,26.41,22.98,0
-23.83,26.05,23.18,0
-24.55,25.70,23.92,1
-25.24,25.61,24.52,4
-25.62,26.07,25.86,7
-25.76,27.00,26.52,3
-25.32,27.32,27.11,2
-24.83,26.95,28.10,4
-23.99,26.58,29.20,13
-22.43,27.07,30.66,15
-19.88,27.87,33.33,10
-17.07,27.92,34.78,14
-14.38,26.93,36.20,17
-11.61,25.52,35.75,18
-9.29,24.24,34.72,26
-6.33,23.59,32.67,43
-1.36,25.34,28.59,48
3.80,28.24,24.81,49
8.49,31.29,24.22,60
10.34,34.92,26.67,82
11.79,39.44,27.10,92
14.12,42.70,25.91,99
16.45,45.21,25.13,108
18.27,47.39,24.63,144
19.42,49.45,24.09,141
20.78,50.77,22.30,231
21.73,52.53,21.36,237
22.24,53.94,20.87,224
22.89,54.44,20.32,225
23.94,54.81,19.67,234
25.62,56.27,18.38,233
26.32,57.45,17.06,228
26.49,56.55,15.41,288
25.94,57.20,15.89,278
25.94,56.51,15.95,276
26.33,57.12,16.71,278
27.27,57.31,15.92,269
28.11,55.66,15.14,280
28.57,53.54,13.88,280
28.58,52.23,13.91,283
27.22,55.31,15.96,285
26.85,52.91,17.08,292
28.56,50.65,15.25,310
30.72,47.88,12.71,289
30.85,48.33,13.23,297
28.93,50.60,14.83,299
28.43,47.82,15.31,326
29.53,45.15,14.39,316
31.06,44.96,13.37,298
30.56,46.55,14.45,325
30.43,44.94,12.42,302
30.36,44.65,12.22,465
29.48,44.57,13.94,501
29.21,46.20,15.24,427
30.43,45.55,14.13,412
31.50,43.83,12.35,375
31.68,41.97,11.36,475
30.73,44.46,13.11,573
29.16,43.38,16.23,520
30.50,40.78,15.22,487
33.17,39.13,11.56,435
32.89,39.44,11.77,453
30.84,39.61,11.04,443
28.86,37.69,12.74,413
29.25,36.10,12.48,426
30.96,37.46,12.98,388
31.69,36.74,10.89,394
30.65,35.73,10.32,424
29.22,35.06,10.22,420
27.77,36.46,12.75,512
28.23,35.02,13.80,527
30.66,33.19,10.88,459
31.08,32.54,10.34,415
30.17,31.17,9.14,471
28.11,34.16,11.36,557
26.91,32.11,13.99,507
29.06,29.09,12.62,476
31.10,29.14,10.44,436
29.88,29.79,10.86,445
27.89,29.68,9.81,518
26.40,30.03,11.26,450
26.99,29.16,10.66,377
28.23,30.79,10.90,347
28.37,30.77,9.87,326
28.04,29.91,7.83,296
26.73,30.44,7.14,281
24.36,27.48,8.59,250
22.95,25.15,8.52,230
22.85,24.80,9.14,200
22.16,25.14,9.85,203
22.03,24.36,9.24,193
22.18,24.05,7.90,181
20.79,23.70,7.22,150
18.59,21.82,6.59,129
15.99,20.01,7.00,118
13.94,17.86,7.11,101
12.94,15.30,6.71,90
11.61,12.86,7.60,90
9.72,10.97,8.48,80
7.63,8.33,8.78,69
6.16,5.49,8.68,64
4.73,2.52,8.33,63
2.83,-0.39,8.46,58
0.21,-2.58,9.04,54
-2.80,-4.71,10.47,52
-6.57,-6.34,13.21,50
-10.59,-7.58,15.51,44
-14.69,-8.54,17.52,43
-18.70,-9.47,18.02,42
-21.32,-10.83,17.09,35
-23.37,-12.67,16.25,38
-25.94,-14.00,16.51,39
-29.30,-15.16,17.85,38
-33.07,-16.14,19.25,34
-36.82,-16.55,20.92,38
-40.10,-16.03,21.79,37
-42.33,-14.66,21.66,33
-44.09,-13.26,22.02,31
-46.08,-12.08,22.95,33
-47.79,-11.30,23.67,33
-49.00,-11.14,23.87,28
-49.75,-11.30,23.42,29
-50.19,-11.15,23.26,29
-50.66,-10.74,23.83,26
-51.33,-10.50,24.56,25
-51.92,-10.40,24.84,25
-52.62,-10.16,25.64,24
-53.13,-9.82,26.04,25
-53.21,-9.37,26.06,28
-53.12,-8.90,26.31,25
-53.07,-8.50,26.59,23
-53.11,-8.27,26.90,22
-53.07,-7.97,27.18,21
-52.95,-7.65,27.46,27
-52.82,-7.59,27.58,23
-52.60,-7.67,27.26,26
-52.41,-7.39,27.33,28
-52.51,-6.77,28.24,25
-52.61,-6.12,28.83,23
-52.50,-5.58,29.07,25
-52.21,-5.11,29.05,31
-51.93,-4.69,29.07,31
-51.81,-4.26,29.18,29
-51.95,-3.96,29.60,28
-52.00,-3.62,29.88,27
-51.85,-3.15,29.98,22
-51.64,-2.67,30.13,24
-51.59,-2.52,30.37,26
-51.58,-2.21,30.66,24
-51.50,-1.71,30.82,19
-51.58,-1.42,31.16,25
-51.61,-1.19,31.38,28
-51.46,-0.89,31.43,26
-51.31,-0.74,31.52,29
-51.25,-0.66,31.66,31
-51.20,-0.51,31.74,27
-51.17,-0.24,31.89,25
-51.26,0.06,32.18,24
-51.33,0.40,32.36,22
-51.26,0.78,32.37,34
-51.12,0.98,32.42,42
-51.18,1.16,32.67,43
-51.26,1.38,32.83,41
-51.23,1.58,32.78,37
-51.09,1.99,32.79,38
-51.02,2.37,32.95,36
-51.03,2.67,33.05,32
-50.98,2.94,33.02,28
-50.93,3.18,33.12,33
-50.97,3.34,33.25,35
-51.00,3.48,33.36,32
-50.99,3.61,33.47,33
-50.99,3.75,33.54,34
-50.94,4.00,33.57,30
-50.90,4.41,33.78,30
-50.84,4.83,33.93,30
-50.76,5.16,34.03,29
-50.66,5.32,34.04,25
-50.55,5.33,34.04,23
-50.49,5.31,34.04,23
-50.46,5.33,33.98,21
-50.52,5.38,34.06,20
-50.57,5.48,34.08,24
-50.57,5.73,34.09,25
-50.53,5.98,34.19,22
-50.44,6.18,34.19,22
-50.27,6.33,34.11,24
-50.11,6.41,34.07,24
-50.08,6.47,34.13,22
-50.07,6.58,34.22,20
-50.06,6.69,34.27,20
-50.06,6.73,34.28,17
-50.06,6.79,34.27,17
-50.04,6.94,34.28,15
-50.02,7.07,34.28,16
-50.02,7.15,34.27,22
-50.02,7.18,34.22,23
-50.02,7.24,34.26,22
-50.02,7.31,34.31,19
-49.99,7.36,34.25,18
-49.96,7.42,34.22,19
-49.95,7.50,34.14,15
-50.14,7.72,34.56,14
-50.26,7.94,34.65,19
-50.25,8.01,34.48,20
-50.17,8.07,34.31,20
-50.15,8.19,34.36,22
-50.18,8.39,34.56,24
-50.17,8.57,34.68,23
-50.09,8.64,34.69,21
-49.97,8.62,34.52,21
-50.00,8.60,34.84,26
-50.01,8.56,34.86,23
-50.00,8.58,35.20,22
-49.93,8.68,35.74,22
-49.88,8.87,36.73,20
-49.81,9.13,38.60,20
-49.33,9.30,40.75,21
-48.36,9.39,43.38,22
-46.35,9.33,45.69,32
-43.28,9.12,48.37,53
-40.37,9.13,50.56,95
-37.53,9.50,52.56,102
-34.66,9.78,52.74,102
-31.97,10.08,50.43,128
-28.85,10.74,45.14,207
-23.33,13.31,40.07,254
-17.72,16.52,35.77,266
-12.82,20.02,34.68,299
-11.36,21.14,35.45,366
-9.43,18.08,34.98,374
-5.42,15.38,31.90,392
-3.03,18.06,31.67,372
-2.99,22.54,33.03,351
-2.14,23.30,32.01,342
-0.38,23.83,31.60,400
-0.63,24.50,33.08,361
-0.68,25.15,34.43,311
0.62,26.91,34.73,299
2.39,28.44,33.60,296
3.74,29.05,32.19,327
3.07,30.41,33.20,311
1.97,29.86,34.42,312
2.68,30.17,35.03,319
6.39,31.31,32.95,305
7.68,32.97,31.77,330
7.13,32.68,31.71,465
6.80,31.61,31.85,420
6.46,32.14,33.61,391
7.65,33.52,33.83,399
10.46,34.43,30.46,365
10.68,34.43,30.09,409
9.86,33.61,29.22,356
8.85,33.26,30.35,356
8.46,35.18,32.02,358
10.11,35.41,31.07,411
12.52,35.36,28.13,377
12.05,34.76,28.79,425
11.01,31.61,27.80,426
9.07,35.14,31.38,436
9.51,31.31,31.13,442
12.87,28.63,28.51,465
14.57,29.09,26.87,416
13.60,29.76,26.88,400
11.25,28.16,29.60,388
11.46,25.18,28.86,380
13.53,24.52,27.74,359
14.91,27.31,26.83,333
14.34,26.64,26.54,396
14.15,25.76,25.26,470
13.10,26.70,27.14,517
13.03,25.76,28.22,461
14.86,25.48,27.04,451
16.67,25.65,24.71,413
16.34,24.78,24.16,516
15.48,25.11,24.47,522
13.92,23.99,26.92,464
15.13,21.59,25.62,453
18.01,21.13,23.07,424
18.16,22.67,23.11,416
16.96,22.60,22.63,482
15.69,22.59,23.85,560
15.68,22.28,24.33,491
16.72,24.44,25.14,436
18.21,24.76,22.87,395
18.30,24.79,22.22,406
17.50,24.55,21.44,434
16.35,24.58,23.30,462
16.60,25.66,24.13,454
18.01,26.16,23.59,462
19.22,25.43,22.20,422
19.63,24.11,21.31,389
18.98,24.47,21.43,379
17.66,23.47,23.38,343
18.37,22.37,22.38,337
20.02,22.71,21.49,297
20.39,22.45,21.18,256
20.94,22.33,20.34,244
20.51,23.96,20.15,221
19.65,24.03,20.22,220
19.43,23.90,20.53,205
19.83,23.48,20.33,188
20.24,23.35,20.22,173
20.73,23.33,19.00,156
20.23,23.50,17.94,142
18.66,24.11,17.70,124
17.13,24.55,17.14,118
16.04,24.07,16.75,128
14.85,22.19,16.66,123
13.45,21.13,17.48,110
11.75,21.12,18.29,110
9.84,20.60,18.75,103
8.15,19.61,18.66,94
6.47,18.44,18.04,81
4.34,16.70,17.25,70
1.74,14.69,16.43,62
-1.04,12.65,16.37,58
-4.46,11.24,17.17,52
-8.15,9.90,18.70,55
-12.05,8.04,19.31,48
-16.21,5.70,19.00,45
-19.91,3.73,18.83,49
-23.64,2.53,19.53,47
-27.21,2.26,20.10,40
-30.13,2.30,20.64,34
-32.66,2.10,20.94,33
-34.95,1.35,20.79,32
-36.63,0.47,20.29,27
-37.82,-0.01,19.74,25
-38.77,0.07,19.58,25
-39.53,0.49,19.81,23
-40.34,0.94,20.20,18
-41.26,1.27,20.41,19
-41.99,1.45,20.16,21
-42.74,1.70,20.06,18
-44.00,2.34,20.83,16
-45.45,3.41,22.20,19
-46.80,4.23,23.34,17
-47.86,4.19,23.67,16
-48.24,3.70,23.19,24
-48.06,3.33,22.50,26
-47.53,3.26,21.99,21
-47.18,3.34,22.16,17
-47.23,3.21,22.55,18
-47.47,2.91,22.70,18
-47.81,2.87,23.08,16
-48.08,3.14,23.48,19
-48.34,3.51,24.01,22
-48.55,3.75,24.24,20
-48.70,3.69,24.20,21
-48.84,3.58,24.31,21
-49.01,3.60,24.67,18
-49.17,3.72,25.11,15
-49.23,3.84,25.56,19
-49.11,3.93,25.71,25
-48.83,3.98,25.69,24
-48.54,4.10,25.71,21
-48.49,4.22,26.16,21
-48.58,4.33,26.71,22
-48.56,4.48,26.88,18
-48.47,4.67,27.26,19
-48.33,4.89,27.52,23
-48.26,4.95,27.79,22
-48.19,5.06,28.08,20
-48.09,5.22,28.40,20
-47.98,5.42,28.75,21
-47.87,5.60,29.00,17
-47.74,5.78,29.22,18
-47.61,5.97,29.42,19
-47.50,6.17,29.50,17
-47.54,6.30,30.15,14
-47.59,6.46,30.49,19
-47.52,6.65,30.68,26
-47.41,6.78,30.87,24
-47.33,6.76,30.96,21
-47.22,6.76,31.05,20
-46.99,6.90,31.14,17
-46.79,7.03,31.31,14
-46.65,7.12,31.53,16
-46.51,7.25,31.79,21
-46.33,7.50,32.20,21
-46.13,7.78,32.79,28
-45.84,8.24,33.48,31
-45.43,8.81,34.59,40
-44.86,9.16,35.74,47
-43.89,9.26,36.26,54
-42.44,9.27,36.23,69
-41.07,9.49,36.62,89
-40.20,10.45,38.64,97
-39.74,12.42,42.31,95
-38.60,14.34,45.48,123
-35.60,15.07,47.23,117
-32.13,15.30,44.13,173
-28.10,16.48,40.95,185
-23.64,16.83,40.93,186
-20.41,17.14,43.99,182
-17.64,19.16,45.78,213
-14.75,22.29,47.52,260
-10.88,22.58,42.00,254
-6.30,22.24,36.93,334
-1.41,23.36,34.17,340
-2.32,25.11,37.68,365
-3.58,27.79,39.45,342
-0.87,30.99,36.06,330
1.48,31.57,34.45,301
2.35,31.34,34.59,291
2.41,33.35,35.46,384
2.96,34.98,35.51,436
4.37,35.12,33.75,427
5.79,34.81,32.81,451
5.37,35.40,34.06,465
5.24,35.55,34.77,443
6.73,36.48,33.52,378
8.39,36.53,31.46,358
8.44,36.69,31.25,423
8.03,36.38,31.49,383
7.50,38.14,33.38,405
8.33,38.17,33.09,397
10.98,37.30,29.04,380
11.82,37.36,28.00,381
11.35,37.11,28.20,520
9.38,40.31,31.29,544
9.57,37.60,31.79,563
12.64,35.34,27.87,485
14.71,34.82,24.94,444
13.99,35.19,25.86,479
11.89,36.97,27.84,451
11.62,35.18,28.59,463
13.54,34.84,27.64,468
15.35,34.92,25.84,459
15.36,33.59,25.37,516
14.49,31.87,25.39,655
13.04,34.82,28.89,608
14.10,31.62,28.10,613
16.99,30.57,25.09,621
17.91,30.76,24.06,572
16.70,29.84,23.93,591
15.19,29.96,25.44,571
14.91,30.84,27.44,541
17.26,30.20,26.01,563
19.23,30.28,24.03,506
18.88,29.58,23.52,570
17.84,27.99,21.93,621
15.49,29.67,25.82,540
16.22,25.88,25.52,496
20.02,23.53,21.15,454
21.20,24.24,20.47,420
19.84,23.42,19.82,445
17.23,25.29,22.72,546
16.97,24.44,22.87,548
19.46,24.59,22.15,566
20.85,25.42,21.48,557
20.48,23.91,19.77,580
18.62,24.72,20.34,539
16.44,24.45,23.34,463
18.18,23.57,22.14,434
21.58,25.64,20.41,434
21.73,25.17,19.84,438
20.66,23.96,17.93,423
17.67,24.84,20.96,533
16.69,24.21,22.44,617
19.30,24.53,21.96,518
22.35,25.10,19.37,442
22.08,24.28,19.35,411
21.08,22.15,16.85,427
18.55,24.87,20.48,424
17.77,22.29,21.66,477
19.89,21.08,20.89,416
22.28,21.74,18.71,386
21.63,20.97,18.83,432
20.49,19.51,16.40,517
17.57,21.89,20.55,638
17.68,20.69,20.07,591
21.80,19.67,17.38,568
23.19,20.28,16.41,490
22.53,19.14,16.28,541
21.67,18.71,16.33,574
19.85,19.49,19.92,567
20.64,18.11,18.77,561
23.24,17.37,15.49,512
23.62,17.85,14.52,591
22.01,18.01,14.46,618
19.52,19.21,17.19,638
19.85,18.97,16.96,575
23.21,18.75,14.74,499
24.35,19.05,13.60,516
23.27,17.95,13.11,505
22.29,17.92,12.86,510
20.09,18.09,16.88,477
21.24,16.88,15.16,475
23.99,17.52,13.07,423
24.52,16.32,12.27,413
23.93,14.20,10.13,399
21.52,16.93,13.19,373
20.25,14.84,15.38,413
22.53,13.84,14.45,402
24.67,14.16,13.40,388
24.42,13.30,12.34,430
22.84,13.62,11.14,530
20.44,15.18,13.69,619
20.73,15.01,13.30,576
23.80,15.15,11.78,572
25.26,14.38,10.38,489
24.53,13.60,9.39,607
23.19,15.30,9.06,645
20.75,14.02,12.68,687
22.16,12.37,11.02,672
25.10,13.47,10.31,564
25.64,13.53,9.67,571
24.45,13.14,8.54,646
22.96,14.39,8.06,690
21.19,14.60,10.37,723
22.21,13.93,9.94,613
24.55,15.22,9.25,531
24.82,14.74,8.25,476
23.40,14.23,7.20,473
21.24,15.54,8.80,467
20.38,14.93,9.96,439
22.31,15.55,9.45,445
23.74,16.53,8.71,394
23.66,14.96,7.57,398
22.59,14.00,5.42,447
19.92,17.05,8.90,428
19.60,13.94,9.19,435
22.46,12.10,7.83,462
24.48,13.14,6.62,404
23.58,13.03,6.65,412
21.50,12.89,4.75,517
18.45,13.47,8.87,570
19.15,11.13,6.66,577
22.35,12.29,5.96,533
23.26,13.20,5.80,517
22.58,11.51,4.71,541
21.51,11.38,3.53,545
19.53,12.97,6.96,593
20.43,11.92,6.27,562
23.40,12.51,5.47,536
23.74,12.92,5.02,515
22.38,12.43,3.61,529
19.83,14.10,5.71,546
19.21,13.52,6.64,536
21.30,13.60,6.22,493
22.76,14.80,5.93,414
22.33,13.73,4.91,415
20.40,14.68,4.11,412
17.87,12.76,7.14,494
18.62,11.55,6.55,520
20.80,13.39,7.48,553
21.97,13.28,6.23,508
21.49,12.15,5.11,536
20.16,12.61,2.90,523
17.00,12.88,7.28,605
17.69,11.65,5.75,562
20.76,12.72,4.76,467
21.69,12.93,4.17,407
20.53,12.42,3.05,430
18.74,14.21,3.15,444
17.30,14.01,5.26,475
18.43,13.71,4.93,432
20.01,15.52,5.87,434
20.67,14.65,4.56,384
20.00,14.07,3.27,355
18.42,15.57,4.32,351
17.35,15.66,5.97,364
18.74,15.30,5.43,338
20.35,16.51,5.83,286
20.63,16.25,5.27,259
20.10,15.53,3.58,240
18.85,16.57,3.26,236
16.90,16.81,4.69,229
16.37,16.52,4.39,212
16.10,16.59,4.92,180
15.66,16.13,5.55,172
15.05,15.72,6.81,179
14.65,16.02,8.26,170
15.64,16.08,7.09,149
16.22,15.66,6.43,133
15.85,14.96,6.08,124
14.65,14.41,7.06,182
13.75,14.40,7.78,185
11.95,15.30,10.51,167
10.66,15.90,12.74,157
11.21,15.60,12.54,135
12.84,15.51,12.52,116
13.51,16.11,13.25,103
13.24,16.72,14.27,90
12.72,17.09,15.27,90
12.51,17.03,15.83,90
12.59,16.42,16.08,99
12.39,16.24,16.92,137
11.93,17.27,18.38,168
11.65,17.98,19.48,179
12.34,17.34,19.13,223
14.38,15.95,16.78,318
13.93,18.66,18.48,326
11.66,20.25,22.34,443
12.57,15.88,22.35,375
16.86,11.68,18.24,380
19.16,12.40,14.55,438
16.65,16.26,18.21,403
13.90,14.87,20.86,344
14.38,12.46,19.91,325
17.61,12.71,17.32,288
18.55,14.52,17.03,307
16.82,16.74,18.28,302
14.88,14.98,20.00,316
15.02,12.91,19.47,317
17.17,13.20,18.66,289
18.71,14.39,17.98,278
18.75,14.03,15.98,277
17.14,15.49,16.74,278
15.38,14.88,17.94,308
14.93,14.54,19.14,293
16.65,15.04,18.39,262
18.09,15.42,18.02,250
18.98,15.36,16.68,245
19.07,16.07,15.28,265
18.08,17.35,15.57,273
16.41,17.70,17.08,312
16.02,16.89,17.28,273
17.01,16.55,17.10,244
18.09,17.30,17.20,211
18.52,17.63,17.05,205
18.73,18.33,16.80,185
18.48,19.27,16.77,183
17.96,19.41,17.21,158
17.63,19.34,17.77,159
17.65,19.83,18.01,180
17.53,20.64,18.42,163
17.42,21.32,18.51,156
17.52,21.69,18.71,149
17.40,22.15,19.41,134
17.17,22.60,20.06,122
17.18,23.04,20.37,125
17.14,23.76,20.91,136
17.04,24.06,21.16,129
17.32,24.10,21.32,132
17.34,24.57,21.85,129
17.06,25.12,22.30,116
16.96,25.71,22.46,112
16.87,26.31,22.59,139
16.38,26.98,23.29,137
16.05,27.13,23.71,128
16.30,26.97,23.89,129
16.70,27.11,24.22,129
16.93,27.49,24.52,121
16.93,27.95,24.82,108
16.85,28.41,25.06,130
16.73,28.76,25.43,129
16.62,29.10,25.76,127
16.59,29.34,26.22,130
17.05,29.02,25.93,152
17.71,28.67,25.91,162
17.63,29.74,26.44,174
17.06,29.96,27.05,264
17.14,29.75,27.22,263
18.01,30.10,26.66,278
18.23,30.51,26.71,361
17.57,31.46,27.82,388
17.36,31.62,28.32,378
18.22,30.82,28.46,364
20.72,29.87,26.46,318
21.32,30.81,26.57,314
20.30,31.51,26.41,418
18.93,31.04,27.60,518
18.46,30.80,28.81,517
19.94,31.21,28.30,501
21.72,31.80,26.41,458
21.79,31.38,25.66,484
21.30,30.69,24.07,565
19.36,30.92,26.71,505
19.31,29.36,26.20,457
20.91,30.94,26.75,421
21.48,32.01,25.82,427
21.23,30.84,24.17,547
20.52,31.44,24.34,516
18.76,31.39,26.47,692
18.99,30.56,26.72,662
21.78,30.84,25.16,574
22.95,31.56,23.55,515
21.84,31.43,22.87,498
19.67,32.70,24.02,513
18.40,31.28,24.59,663
19.50,30.49,24.27,593
21.37,31.92,23.99,547
21.65,31.95,22.72,499
20.66,31.31,21.42,439
18.98,31.89,23.22,481
18.24,30.95,23.96,412
19.25,31.22,24.26,445
20.49,32.02,23.44,406
20.90,31.97,22.35,404
20.20,32.13,21.77,418
18.94,32.11,23.12,516
18.42,31.42,23.95,504
19.08,32.07,24.67,479
19.88,32.56,24.04,427
20.56,32.06,22.57,378
20.39,32.53,21.96,390
19.01,32.88,23.23,356
18.33,32.49,23.98,350
18.85,32.64,24.17,336
19.57,32.72,24.12,304
20.35,32.72,23.77,279
20.46,33.32,22.98,290
19.64,33.85,23.24,386
18.72,33.64,24.32,357
18.83,33.19,24.53,304
19.33,33.46,24.90,281
19.57,33.88,25.04,248
19.70,34.59,24.81,233
19.72,34.91,24.83,269
19.44,34.83,25.37,267
19.42,34.67,25.80,288
19.49,35.10,26.06,255
19.29,35.74,26.20,217
18.91,36.59,26.32,198
18.56,36.93,26.44,203
18.28,36.91,26.97,184
18.20,36.84,27.40,181
18.14,37.00,28.00,160
18.21,37.10,28.29,147
18.22,37.55,28.68,139
18.00,37.85,29.00,154
18.00,38.01,29.11,157
17.82,38.39,29.58,153
17.61,38.37,29.86,157
17.62,38.42,30.01,180
17.78,38.30,29.99,171
17.66,38.69,30.43,166
17.58,38.80,30.47,182
17.38,38.86,31.02,165
17.20,38.82,31.51,154
17.38,38.92,31.50,145
17.59,39.02,31.41,152
17.64,39.12,31.45,184
17.47,39.15,31.69,188
17.43,38.90,31.98,200
17.39,39.43,32.31,181
17.40,39.78,32.20,189
17.40,40.03,32.21,186
17.50,39.96,32.22,184
17.47,39.90,32.67,198
17.39,39.97,33.14,184
17.52,40.27,33.12,185
17.52,40.48,33.16,197
17.49,40.64,33.04,196
17.55,40.58,33.05,181
17.45,40.72,33.48,168
17.26,40.92,33.76,178
17.34,40.77,33.79,194
17.52,40.82,33.87,190
17.73,40.91,33.83,211
17.64,41.27,33.99,248
17.48,41.25,34.18,244
17.34,41.12,34.51,216
17.41,40.99,34.77,202
17.60,41.07,34.82,208
17.94,41.04,34.58,222
18.11,41.50,34.46,229
17.98,41.50,34.29,238
17.66,41.77,34.78,265
17.46,41.55,34.94,242
17.58,41.35,35.27,206
18.01,41.45,35.10,252
18.34,41.75,34.75,217
18.27,41.96,34.65,222
17.93,42.03,34.94,203
17.66,41.85,35.29,193
17.43,42.12,35.84,199
17.43,42.18,35.79,216
17.59,42.30,35.83,199
17.85,42.10,35.60,271
17.94,42.12,35.83,267
17.70,42.11,36.07,239
17.63,41.98,36.27,230
17.75,41.92,36.30,237
17.94,42.05,36.26,260
18.16,42.27,35.92,235
18.04,42.77,35.97,304
17.66,42.86,36.17,347
17.66,42.15,36.23,294
18.08,42.02,36.51,348
18.05,42.43,36.77,328
18.32,42.45,36.24,275
18.45,42.85,36.08,373
18.11,43.08,36.10,334
17.79,42.71,36.36,300
17.98,42.44,36.51,277
17.98,42.55,37.03,248
18.28,42.42,36.75,219
18.64,42.82,36.53,224
18.55,43.00,36.36,209
18.41,42.97,36.34,246
18.10,43.23,36.83,259
17.91,42.87,36.96,227
18.26,42.79,36.94,218
18.67,42.85,36.65,220
18.68,43.13,36.56,227
18.44,43.33,36.52,230
18.13,43.10,36.72,200
18.03,42.93,37.15,190
18.10,42.93,37.31,182
18.43,42.86,37.26,171
18.67,43.17,37.09,186
18.63,43.41,36.94,203
18.48,43.24,36.90,239
18.24,43.31,37.41,225
18.04,43.18,37.73,210
18.39,42.89,37.67,209
18.92,42.93,37.41,185
19.03,43.14,37.27,236
18.95,43.68,36.86,219
18.71,43.63,36.82,254
18.29,43.55,37.36,301
18.10,43.25,37.67,258
18.44,43.12,37.81,229
18.92,43.17,37.52,209
19.57,43.22,36.91,204
19.56,43.44,36.69,198
19.21,43.65,36.72,282
18.75,43.76,37.18,265
18.65,43.41,37.30,241
18.98,43.47,37.41,256
19.37,43.52,37.05,222
19.51,43.57,36.81,216
19.37,43.66,36.90,231
19.03,43.66,37.25,259
18.80,43.57,37.64,236
18.99,43.48,37.66,224
19.40,43.53,37.33,198
19.73,43.49,37.07,192
19.65,43.62,37.07,204
19.26,43.85,37.33,244
18.88,43.87,37.56,312
18.82,43.45,37.80,270
19.46,43.15,37.53,243
19.76,43.37,37.48,212
19.77,43.49,37.20,194
19.59,43.85,37.19,203
19.27,43.80,37.34,192
18.95,43.84,37.91,193
19.05,43.64,37.95,177
19.60,43.52,37.66,174
19.91,43.61,37.49,180
19.79,43.74,37.41,189
19.40,43.83,37.86,189
19.20,43.60,38.05,176
19.42,43.52,38.23,204
19.98,43.83,37.41,219
19.90,44.00,36.58,356
18.91,44.13,37.17,365
17.99,43.27,37.76,406
18.42,43.07,38.36,412
20.09,43.99,37.00,361
20.86,43.46,35.43,330
20.54,42.49,34.23,358
19.60,42.15,34.12,318
17.60,42.46,36.67,333
18.03,42.11,36.35,318
20.66,42.87,33.90,289
21.36,42.22,32.64,280
20.73,40.64,30.83,268
18.75,41.63,32.75,290
16.96,41.91,35.06,413
18.14,40.52,34.10,388
21.40,40.83,30.65,355
21.72,40.32,30.06,369
20.52,38.89,27.96,562
18.03,39.64,30.68,538
17.08,38.63,31.11,508
18.45,38.65,30.90,470
20.40,39.38,29.66,399
20.83,38.53,28.48,370
20.19,37.70,26.63,390
18.55,38.29,28.05,340
17.13,37.43,29.31,394
17.69,37.41,29.50,358
19.36,38.15,28.68,336
20.25,37.86,27.63,307
20.01,37.77,26.81,304
19.48,38.07,26.19,551
18.16,37.54,28.01,530
18.14,37.08,28.21,522
18.89,37.78,28.64,445
19.82,37.72,27.60,381
20.19,37.88,26.73,348
19.81,38.07,26.11,447
18.86,38.01,27.30,446
18.27,37.76,28.23,382
18.88,37.79,28.14,377
19.75,38.10,27.83,334
20.25,38.14,26.99,293
20.23,38.28,26.67,352
19.58,38.46,27.44,443
18.99,38.41,28.12,436
19.05,38.42,28.57,376
19.67,38.32,28.34,361
20.30,38.71,27.78,307
20.09,39.19,27.62,273
19.63,39.21,27.69,263
19.14,39.13,28.45,252
19.06,38.87,28.79,228
19.24,38.94,29.13,215
19.63,39.07,28.87,222
19.75,39.70,28.54,210
19.46,39.82,28.52,193
19.02,39.71,29.13,177
18.84,39.67,29.51,158
18.66,39.82,30.06,150
18.71,39.87,30.14,143
19.00,40.16,30.06,128
19.19,40.38,29.72,125
19.04,40.40,29.90,166
18.63,40.49,30.39,168
18.41,40.45,30.63,164
18.46,40.43,30.88,181
18.58,40.46,30.98,166
18.60,40.73,31.20,154
18.72,40.82,30.87,209
18.65,40.84,31.21,222
18.55,40.62,31.40,265
18.44,40.69,31.94,219
18.48,40.76,32.01,217
18.56,41.01,32.07,236
18.56,41.38,32.03,202
18.49,41.48,32.09,181
18.48,41.48,32.22,159
18.35,41.51,32.54,149
18.28,41.44,32.73,161
18.31,41.58,32.87,174
18.30,41.70,32.90,164
18.35,41.83,32.93,142
18.31,41.92,33.01,149
18.20,41.97,33.35,171
18.10,42.11,33.47,195
18.10,42.15,33.61,174
18.26,42.09,33.59,208
18.31,42.22,33.64,175
18.18,42.31,33.77,181
17.99,42.39,34.15,179
18.03,42.29,34.22,201
18.21,42.09,34.41,201
18.29,42.05,34.63,207
18.45,42.14,34.57,224
18.46,42.33,34.80,220
18.46,42.44,34.50,213
18.31,42.56,34.93,254
18.24,42.44,34.86,250
18.05,42.39,35.44,266
18.17,42.07,35.55,256
18.83,41.96,35.13,276
18.91,42.50,35.13,322
18.81,42.99,34.64,345
18.05,43.05,35.42,331
17.85,42.03,35.90,298
19.09,41.68,35.49,284
20.19,42.26,34.82,343
19.96,42.43,34.02,326
19.48,43.27,33.10,421
18.19,42.80,34.30,423
17.96,41.59,34.49,356
18.74,42.20,34.87,330
19.82,42.20,33.49,284
19.94,42.34,33.05,370
19.65,42.44,32.32,424
18.74,41.99,33.38,423
18.43,41.55,34.10,370
19.02,41.73,34.02,343
19.92,42.14,33.14,308
19.95,42.36,32.57,405
19.83,42.47,31.58,410
18.68,42.71,33.07,379
18.16,42.04,33.67,382
18.90,41.74,33.60,358
20.23,41.85,32.74,330
20.56,42.15,32.04,338
20.01,42.55,31.73,354
19.33,42.59,32.24,303
18.86,42.12,32.76,561
18.79,41.95,33.62,578
19.71,41.64,32.81,498
20.54,42.01,32.46,481
20.46,42.21,31.26,455
19.93,42.75,30.83,460
18.86,42.30,31.75,443
18.40,41.58,32.50,392
19.09,41.73,32.61,367
20.01,42.02,32.08,328
20.47,42.15,31.12,316
20.10,42.51,30.84,370
19.32,42.61,31.45,355
18.86,41.88,31.88,327
19.02,41.94,32.46,297
19.36,42.06,32.38,295
19.93,42.33,31.83,254
19.85,42.81,31.44,258
19.58,42.78,31.47,306
19.03,42.44,32.40,268
19.22,41.92,32.77,240
19.74,42.29,33.04,202
20.03,42.39,32.90,209
20.53,42.67,32.06,200
20.39,43.08,31.79,189
19.70,43.04,31.95,196
19.16,42.99,32.46,175
19.11,42.60,32.55,153
19.33,42.39,32.68,154
19.49,42.36,32.76,163
19.77,42.35,32.57,157
19.89,42.45,32.48,160
19.74,42.33,32.69,149
19.54,42.52,32.93,128
19.29,42.86,33.08,113
19.08,43.03,33.10,109
19.11,43.18,32.98,117
19.09,43.30,33.01,167
18.82,43.51,33.21,166
18.68,43.35,33.30,156
18.49,43.27,33.79,155
18.35,43.22,34.10,156
18.35,43.42,34.21,166
18.41,43.61,34.06,149
18.42,43.64,34.17,142
18.43,43.56,34.21,156
18.42,43.45,34.43,173
18.21,43.52,34.80,160
18.15,43.58,34.87,159
18.21,43.69,34.84,162
18.19,43.90,34.91,155
18.16,44.00,34.86,132
18.10,44.08,34.98,160
17.87,44.02,35.35,191
17.76,43.79,35.53,198
17.89,43.62,35.66,190
17.99,43.71,35.78,160
18.11,43.73,35.63,134
18.09,43.79,35.78,128
17.92,43.95,35.87,140
17.75,44.09,36.01,132
17.64,44.06,36.11,115
17.64,44.05,36.27,119
17.72,44.01,36.33,121
17.87,44.01,36.30,117
17.94,44.10,36.24,113
17.86,44.13,36.22,109
17.64,44.17,36.40,131
17.43,44.07,36.57,132
17.33,44.05,36.83,139
17.44,44.12,36.78,156
17.75,44.11,36.50,160
17.87,44.34,36.36,161
17.71,44.39,36.35,198
17.34,44.23,36.76,203
17.11,43.63,37.17,209
17.33,43.68,37.48,196
17.66,43.92,37.29,193
17.98,44.37,36.72,200
18.12,44.49,35.81,220
17.60,44.41,36.23,294
16.83,44.05,37.11,338
16.77,43.86,37.67,313
17.62,43.69,37.41,286
18.80,44.10,36.38,287
18.96,43.80,34.98,263
18.91,43.58,33.49,303
17.36,43.63,34.93,411
16.54,42.70,35.52,408
17.20,43.07,36.10,406
18.98,43.18,34.33,354
19.79,42.95,33.55,332
19.57,42.59,32.12,351
19.06,43.13,31.96,422
17.60,42.51,33.50,423
17.64,41.50,33.41,401
18.80,42.66,33.45,357
19.45,42.84,32.04,306
19.33,42.45,31.31,322
18.94,42.68,31.02,303
17.96,41.85,32.20,333
18.00,40.80,32.61,309
18.88,41.28,33.12,289
19.84,41.83,31.46,284
19.67,41.81,30.77,351
18.86,41.99,29.20,378
16.92,42.00,31.43,398
16.67,40.15,31.33,354
18.31,40.32,31.88,347
20.19,40.44,29.85,329
20.38,39.95,29.08,308
19.47,39.88,27.65,395
17.86,39.99,29.30,347
17.35,38.41,29.34,340
18.48,39.23,29.87,333
19.57,39.79,28.37,288
19.61,39.09,27.34,311
18.71,39.64,26.43,335
17.30,39.63,27.71,305
16.99,38.35,27.86,281
17.74,39.17,28.52,273
18.71,39.24,27.38,267
19.27,38.90,26.45,298
18.85,39.38,26.15,317
17.93,38.99,27.10,410
17.51,38.46,28.09,371
18.06,38.64,28.48,372
19.26,39.03,27.39,353
19.38,39.09,26.77,427
19.20,38.88,25.28,439
17.78,38.74,27.03,379
17.44,37.72,27.50,384
18.36,38.31,27.92,390
19.57,38.22,26.76,392
19.81,38.18,25.39,351
19.06,38.21,24.64,366
17.44,38.20,26.66,424
17.21,37.52,26.86,371
18.33,37.86,26.91,330
19.42,38.00,26.19,365
19.76,37.80,24.38,366
18.83,38.39,24.42,373
17.51,37.30,25.59,378
17.63,36.62,26.09,351
18.74,37.68,26.65,373
20.05,37.25,24.70,392
20.34,36.46,23.44,456
20.44,35.79,22.48,576
18.04,36.87,25.97,664
18.19,36.44,25.89,706
20.92,36.02,24.13,621
22.89,35.70,22.41,556
22.42,34.66,20.85,512
20.47,35.91,20.80,506
17.67,33.13,23.33,487
18.15,31.81,21.92,494
20.33,33.79,22.23,479
22.36,32.46,19.40,466
21.84,31.84,18.79,487
19.88,32.73,18.24,600
17.13,32.77,21.89,587
18.00,30.64,20.05,655
21.20,31.19,19.19,588
22.31,31.62,18.07,525
21.31,30.30,16.83,526
19.09,31.99,17.48,626
16.28,31.47,20.69,538
17.59,30.42,19.17,604
20.97,31.97,18.10,536
22.66,30.34,15.68,478
21.25,28.98,14.21,458
17.16,31.50,18.38,526
14.86,29.24,20.99,652
17.56,27.63,18.53,581
21.35,28.67,16.54,540
21.69,27.77,15.65,525
19.54,26.80,14.06,538
15.30,27.92,18.50,539
14.44,26.00,18.23,546
17.60,27.40,17.77,540
20.50,27.49,15.38,527
20.28,25.26,13.82,483
17.47,25.62,13.63,548
13.50,24.69,17.15,576
13.68,23.39,16.13,492
17.20,24.71,14.76,523
19.66,23.85,12.50,487
19.07,21.89,11.26,459
16.94,22.61,11.75,437
13.66,21.56,15.55,596
14.85,19.89,13.35,685
18.39,21.74,12.92,620
19.82,21.30,12.35,601
19.10,20.09,10.81,585
16.68,20.95,9.81,835
13.02,19.60,13.81,895
13.84,17.82,11.51,991
17.40,19.30,11.39,812
19.82,18.75,9.53,699
19.03,17.73,8.45,620
15.98,18.74,7.66,757
11.84,17.73,11.77,912
12.21,16.62,10.41,1018
15.51,17.76,9.96,945
19.33,15.68,6.25,821
19.18,14.54,4.52,790
15.75,16.71,5.78,844
11.28,16.68,10.15,882
10.99,14.99,8.72,759
14.26,16.00,7.40,627
18.62,14.51,4.12,569
18.57,13.29,2.79,506
15.53,15.02,4.12,495
11.76,13.39,7.16,506
11.12,12.69,6.60,525
13.09,14.24,7.38,464
16.08,13.21,5.93,437
17.29,12.44,4.41,418
15.96,13.46,4.28,423
13.06,14.93,5.06,553
10.94,14.85,7.20,548
11.96,14.74,6.69,457
14.25,15.43,7.17,450
16.76,14.23,5.38,379
16.81,14.27,5.22,316
15.90,14.48,4.00,301
13.66,16.36,6.02,279
12.12,17.64,7.04,264
11.99,17.52,7.12,236
12.92,16.05,6.90,206
14.24,15.11,6.95,181
14.99,14.95,7.58,172
15.43,14.42,7.66,155
15.54,14.08,8.28,136
14.85,15.01,9.41,121
14.19,15.71,10.01,104
13.71,16.48,10.67,95
13.49,16.74,11.10,86
13.51,16.69,11.52,76
13.54,16.38,11.96,70
13.55,15.47,12.31,69
13.10,14.79,13.41,63
12.25,14.99,14.96,61
11.30,15.45,16.10,63
10.44,15.80,17.19,65
9.74,15.86,18.02,60
9.33,15.51,18.55,63
8.94,14.92,19.07,65
8.04,13.99,20.08,64
6.83,13.61,21.77,64
6.05,13.60,22.41,63
5.77,13.38,22.45,62
5.44,12.88,22.53,57
4.88,12.68,22.98,57
4.13,12.79,23.20,56
2.96,12.81,23.38,55
1.40,12.66,24.02,51
-0.40,12.42,24.81,53
-2.28,11.81,25.49,57
-3.75,11.02,25.94,52
-5.31,10.07,26.52,52
-7.36,9.02,27.62,54
-9.49,8.31,29.23,51
-11.38,7.84,30.76,48
-12.77,7.49,32.01,47
-13.67,7.53,33.30,48
-14.30,8.29,34.54,48
-15.25,8.82,35.79,46
-16.22,8.55,36.65,48
-16.90,7.66,37.20,47
-17.07,6.47,37.55,43
-17.39,5.41,38.80,44
-17.91,4.62,39.98,42
-18.30,4.17,40.94,40
-19.17,3.57,42.43,46
-20.26,2.76,43.61,47
-20.94,2.01,44.24,41
-21.23,1.54,44.82,33
-21.51,1.28,45.79,35
-21.71,1.42,46.98,36
-21.85,1.60,48.19,33
-22.09,1.38,49.38,25
-21.98,1.13,48.50,27
-22.76,1.16,49.20,22
-25.63,3.75,53.07,15
-29.70,7.37,55.88,4
-31.99,10.73,55.92,1
-34.34,14.43,59.25,0
-36.50,17.83,61.45,0
-37.06,20.85,60.59,0
-37.27,23.78,60.54,0
-37.89,26.71,61.23,0
-38.32,29.57,61.32,0
-38.41,32.55,61.00,0
-38.69,35.84,61.44,0
-38.92,38.27,61.87,0
-38.78,40.11,61.48,0
-37.44,38.76,57.78,0
-37.54,36.50,58.11,0
-39.49,35.06,58.96,0
-40.23,34.83,58.20,0
-40.41,34.53,58.82,0
-40.57,34.06,58.44,0
-40.45,33.60,57.72,0
-40.45,33.64,57.45,0
-40.58,33.99,57.64,0
-40.62,34.45,57.54,0
-40.43,35.02,56.97,0
-40.16,35.87,56.42,0
-39.97,37.13,56.13,0
-39.21,34.92,54.79,0
-39.00,33.17,54.08,0
-39.68,31.85,54.94,0
-39.55,31.23,53.72,0
-39.47,30.77,54.09,0
-39.58,30.58,54.29,0
-39.36,30.87,53.73,0
-38.85,31.37,53.01,0
-38.25,32.11,51.83,0
-37.83,32.20,51.17,0
-37.77,32.13,50.85,0
-37.81,32.18,50.75,0
-37.81,32.03,50.90,0
-38.18,32.27,50.91,0
-38.07,32.84,50.60,0
-38.20,33.59,50.37,0
-38.08,34.06,49.92,0
-37.71,34.13,49.38,0
-37.30,34.30,48.69,0
-36.87,34.58,48.28,0
-36.47,34.99,47.80,0
-36.15,35.33,47.41,0
-35.87,35.57,47.30,0
-35.59,36.04,46.85,0
-35.25,36.53,46.37,0
-34.87,36.96,46.07,0
-34.54,37.40,45.63,0
-34.21,37.85,45.22,0
-33.98,38.28,44.79,0
-33.83,38.73,44.41,0
-33.69,39.14,44.21,0
-33.45,39.50,43.80,0
-33.23,39.86,43.40,0
-33.07,40.16,43.08,0
-32.93,40.45,42.76,0
-32.75,40.80,42.29,0
-32.59,41.03,41.93,0
-32.49,41.17,41.68,0
-32.40,41.30,41.54,0
-32.39,41.53,41.36,0
-32.49,41.75,41.48,0
-32.49,41.99,41.16,0
-32.48,42.23,40.89,0
-32.52,42.39,40.68,0
-32.49,42.65,40.40,0
-32.38,42.77,40.01,0
-32.48,42.91,39.91,0
-32.70,43.17,39.91,0
-32.76,43.41,39.76,0
-32.84,43.65,39.53,0
-32.87,43.83,39.30,0
-32.79,43.92,38.86,0
-32.55,43.96,38.52,0
-32.38,44.08,38.25,0
-32.26,44.19,38.03,0
-32.18,44.32,37.84,0
-32.20,44.50,37.73,0
-32.23,44.65,37.50,0
-32.14,44.86,37.31,0
-32.03,44.90,36.91,0
-32.26,44.81,37.02,0
-32.55,44.59,36.48,0
-32.98,44.71,36.36,0
-32.90,44.42,35.01,0
-33.02,43.31,34.67,0
-33.51,42.95,34.81,2
-34.30,43.22,36.25,0
-34.51,43.77,35.88,0
-35.41,45.33,36.05,0
-35.70,48.70,36.62,1
-37.11,50.26,39.22,4
-34.46,46.98,35.88,2
-31.19,44.56,33.23,2
-29.10,43.64,36.65,11
-29.47,45.94,39.39,14
-29.50,42.16,42.29,32
-27.32,38.49,37.68,56
-24.70,34.95,33.12,51
-19.60,34.61,31.09,55
-15.21,33.81,33.96,65
-12.74,32.60,36.67,106
-8.61,34.88,36.22,116
-4.78,36.19,36.70,131
-1.59,35.74,35.85,191
1.05,35.42,36.38,212
3.67,34.39,35.98,263
4.64,34.45,37.75,320
4.05,36.65,41.54,351
4.81,34.13,42.81,381
8.76,31.69,38.06,375
12.62,29.38,33.55,365
12.23,30.67,36.24,363
8.81,34.06,39.21,402
7.42,32.39,40.46,391
8.76,30.71,38.34,367
12.55,28.88,34.79,337
14.15,28.93,33.97,345
12.79,30.60,35.52,401
11.16,28.96,36.82,363
10.91,28.48,36.16,337
11.27,28.47,36.47,322
12.93,28.54,35.60,294
15.24,27.18,31.86,296
15.19,27.72,32.34,318
12.75,28.97,33.57,291
11.16,29.64,34.45,266
11.98,30.76,33.81,258
13.57,30.15,32.07,251
15.22,29.68,31.85,231
16.21,29.36,30.43,228
16.76,28.96,29.98,220
16.14,31.11,30.09,211
15.68,32.32,29.65,186
15.33,33.08,29.37,175
15.28,34.09,29.19,161
15.46,34.16,28.53,145
15.72,34.10,28.23,137
15.96,33.85,27.79,126
16.01,33.52,27.39,128
15.66,33.50,27.19,122
14.42,33.86,27.39,111
13.00,34.49,27.42,98
11.90,34.68,26.79,98
10.88,35.02,25.90,95
9.86,35.53,25.03,83
8.59,36.04,24.08,76
6.82,36.35,23.72,77
5.10,37.24,22.81,66
3.45,38.52,21.95,60
1.53,40.43,21.19,53
-0.57,41.90,20.36,46
-2.77,42.90,19.31,33
-5.42,43.59,18.43,27
-7.96,44.17,17.04,20
-9.84,45.02,15.53,18
-12.48,47.05,14.36,11
-15.46,50.06,15.04,8
-18.97,53.00,16.65,5
-22.92,55.26,17.74,3
-25.10,56.46,18.01,4
-24.69,56.90,16.31,6
-22.96,57.31,13.61,3
-21.49,57.76,11.83,1
-20.83,58.25,10.92,3
-21.45,58.95,11.49,5
-22.48,59.39,11.96,0
-23.13,59.59,11.96,0
-23.21,59.98,11.39,0
-23.01,60.59,10.95,1
-22.83,61.24,10.53,0
-22.93,61.59,10.65,0
-23.08,61.80,10.52,1
-23.22,62.04,10.63,6
-23.22,62.34,10.36,1
-23.15,62.82,10.03,1
-23.24,63.35,10.27,4
-23.18,63.76,10.38,0
-22.76,64.01,10.02,0
-22.19,64.07,9.65,2
-21.76,64.00,9.41,0
-21.44,63.97,9.07,2
-21.23,64.20,8.87,5
-21.23,64.54,9.00,4
-21.20,64.88,8.99,0
-21.04,65.31,8.87,0
-20.91,65.55,8.74,0
-20.84,65.59,8.70,0
-20.84,65.36,8.64,0
-20.84,65.19,8.52,0
-20.82,65.17,8.51,0
-20.73,65.10,8.45,0
-20.51,65.07,8.21,8
-20.31,65.24,8.12,10
-20.25,65.48,8.16,14
-20.24,65.61,8.21,13
-20.21,65.60,8.10,10
-20.17,65.66,8.16,9
-20.14,65.70,8.11,4
-20.04,65.62,7.98,0
-20.04,65.55,8.04,0
-20.22,65.52,8.16,0
-20.30,65.47,8.20,0
-20.28,65.49,8.16,0
-20.22,65.54,8.03,0
-20.50,65.41,8.40,0
-20.81,65.17,8.44,0
-20.90,65.20,8.54,0
-20.70,65.28,8.49,0
-20.38,65.34,8.31,0
-20.11,65.49,8.26,0
-19.84,65.69,8.13,0
-19.68,65.82,8.07,0
-19.73,65.88,8.16,0
-19.72,65.96,8.14,0
-19.68,66.01,8.13,0
-19.65,66.02,8.13,0
-19.64,66.02,8.14,0
-19.60,66.03,8.16,0
-19.53,65.94,8.27,0
-19.39,65.70,8.09,0
-19.09,65.66,7.93,0
-18.87,65.63,8.00,0
-18.71,65.65,7.90,0
-18.59,65.73,7.99,0
-18.53,65.84,8.20,0
-18.35,66.00,8.14,0
-18.23,66.14,8.17,0
-18.15,66.21,8.19,2
-18.07,66.26,8.13,4
-18.03,66.37,8.21,1
-17.99,66.47,8.32,4
-17.93,66.54,8.32,7
-17.83,66.63,8.28,4
-17.80,66.73,8.39,0
-17.71,66.72,8.37,0
-17.57,66.76,8.25,0
-17.48,66.94,8.34,0
-17.44,67.12,8.47,0
-17.37,67.17,8.42,0
-17.27,67.22,8.28,0
-17.22,67.43,8.31,0
-17.24,67.63,8.52,0
-17.20,67.64,8.50,0
-17.05,67.58,8.33,0
-16.97,67.54,8.25,0
-16.96,67.61,8.29,0
-16.93,67.69,8.39,0
-16.90,67.71,8.40,0
-16.85,67.72,8.41,0
-16.85,67.71,8.43,1
-16.85,67.76,8.48,0
-16.85,67.82,8.56,5
-16.83,67.85,8.55,5
-16.76,67.89,8.55,1
-16.67,67.96,8.57,0
-16.62,68.01,8.58,0
-16.57,68.08,8.61,3
-16.49,68.17,8.62,6
-16.42,68.26,8.62,4
-16.37,68.36,8.64,4
-16.35,68.37,8.64,4
-16.31,68.40,8.62,1
-16.26,68.48,8.66,2
-16.26,68.52,8.75,1
-16.24,68.51,8.76,0
-16.19,68.44,8.76,0
-16.13,68.45,8.76,1
-16.08,68.53,8.80,2
-16.05,68.61,8.87,0
-15.99,68.63,8.87,0
-15.93,68.65,8.83,3
-15.92,68.68,8.86,2
-15.93,68.71,8.91,1
-15.90,68.74,8.92,0
-15.91,68.75,9.00,0
-15.83,68.77,8.97,0
-15.70,68.78,8.94,0
-15.59,68.79,8.92,0
-15.51,68.86,8.95,0
-15.48,68.91,8.99,2
-15.47,68.97,9.05,3
-15.45,69.02,9.10,2
-15.43,69.00,9.08,0
-15.40,68.98,9.04,0
-15.39,69.01,9.03,0
-15.40,69.04,9.05,0
-15.42,69.09,9.07,0
-15.42,69.14,9.06,0
-15.40,69.18,9.05,0
-15.41,69.17,9.06,0
-15.42,69.15,9.06,0
-15.42,69.12,9.05,3
-15.42,69.13,9.08,2
-15.39,69.16,9.10,0
-15.36,69.14,9.10,0
-15.35,69.15,9.12,2
-15.34,69.19,9.16,2
-15.31,69.21,9.17,3
-15.31,69.23,9.16,2
-15.32,69.23,9.20,1
-15.30,69.23,9.22,0
-15.28,69.23,9.23,0
-15.24,69.26,9.24,4
-15.21,69.30,9.25,3
-15.17,69.34,9.26,2
-15.13,69.40,9.25,3
-15.11,69.46,9.27,5
-15.10,69.49,9.27,3
-15.11,69.48,9.27,2
-15.13,69.49,9.30,1
-15.14,69.50,9.31,0
-15.14,69.51,9.35,3
-15.12,69.53,9.37,2
-15.12,69.56,9.36,5
-15.12,69.57,9.38,6
-15.09,69.60,9.39,5
-15.10,69.68,9.48,1
-15.10,69.70,9.56,0
-14.97,69.79,9.56,0
-15.06,69.87,9.69,1
-15.03,70.09,9.67,1
-15.06,70.25,9.92,0
-15.12,70.27,10.01,2
-15.01,70.31,9.92,6
-14.95,70.23,9.80,3
-14.90,70.19,9.73,3
-14.84,70.24,9.73,7
-14.84,70.28,9.77,7
-14.86,70.32,9.82,5
-14.88,70.37,9.88,3
-14.81,70.33,9.86,12
-14.62,70.20,9.69,19
-14.28,70.05,9.31,36
-14.02,70.14,8.74,50
-14.42,70.86,8.98,67
-15.62,71.75,10.51,64
-16.29,72.18,12.15,64
-15.48,71.62,11.61,62
-13.86,70.79,9.80,97
-12.05,69.79,7.37,86
-10.67,69.14,5.14,68
-10.69,69.08,5.23,55
-12.46,69.95,7.28,40
-14.60,70.75,10.68,39
-15.93,71.20,12.52,29
-15.51,70.05,11.08,25
-14.76,68.53,9.07,16
-14.16,67.18,8.31,12
-13.84,66.52,8.03,11
-13.85,66.57,8.55,6
-14.00,67.31,9.51,2
-14.10,67.98,10.24,4
-14.12,68.02,10.61,9
-13.86,67.66,10.30,10
-13.41,67.49,9.68,9
-13.06,67.55,9.69,8
-12.99,67.65,9.87,5
-13.04,67.59,10.12,0
-13.01,67.39,10.05,5
-12.83,67.11,9.59,1
-12.74,66.94,9.30,0
-12.78,66.92,9.34,0
-12.89,66.95,9.37,0
-12.98,66.88,9.20,0
-13.08,66.73,9.02,3
-13.24,66.72,9.01,4
-13.45,66.81,9.12,3
-13.67,66.91,9.29,2
-13.76,67.04,9.47,2
-13.73,67.14,9.46,0
-13.70,67.13,9.39,0
-13.66,67.12,9.37,0
-13.65,67.13,9.36,0
-13.63,67.17,9.39,0
-13.62,67.24,9.46,0
-13.64,67.26,9.53,0
-13.70,67.21,9.59,2
-13.72,67.21,9.61,1
-13.65,67.30,9.63,0
-13.54,67.34,9.58,1
-13.52,67.36,9.52,1
-13.74,67.38,9.67,0
-14.12,67.51,10.08,0
-14.43,67.68,10.37,9
-14.62,67.51,10.49,18
-14.54,67.37,10.25,28
-14.42,67.19,10.17,37
-14.22,66.96,10.04,52
-13.91,66.89,9.59,57
-13.96,67.21,9.77,62
-14.85,68.02,11.02,57
-15.91,68.76,12.66,68
-15.46,67.71,12.46,72
-13.56,65.52,9.27,103
-11.63,64.39,6.20,102
-11.23,64.09,6.95,90
-12.48,65.81,10.65,88
-14.02,68.66,13.78,94
-15.43,67.18,17.29,124
-13.38,63.64,13.57,123
-9.55,60.83,9.53,107
-7.19,58.70,9.24,96
-6.29,58.72,11.53,92
-6.95,62.09,14.53,111
-7.82,65.70,17.73,167
-7.25,62.55,17.01,189
-5.04,59.54,13.18,159
-3.27,55.45,9.57,130
-4.25,52.72,12.25,105
-6.54,53.07,16.10,93
-9.15,56.61,19.55,87
-9.17,56.00,20.49,85
-7.76,54.98,17.01,77
-6.35,53.54,14.09,70
-5.73,53.33,14.48,54
-6.71,55.19,16.08,44
-7.60,57.44,17.45,39
-7.99,57.93,17.77,28
-8.07,57.04,16.79,22
-8.11,56.28,15.89,21
-8.25,56.45,15.82,17
-8.40,57.19,16.09,12
-8.51,57.71,16.09,10
-8.57,57.81,15.76,7
-8.65,57.90,15.44,2
-8.84,58.27,15.28,8
-9.18,58.75,15.33,11
-9.49,59.05,15.11,9
-9.68,59.00,14.70,7
-9.88,58.77,14.44,8
-10.45,58.55,14.65,8
-11.08,58.42,14.91,4
-11.58,58.34,15.26,5
-11.91,58.16,15.29,5
-12.13,57.99,15.25,0
-12.27,57.95,15.14,2
-12.31,58.07,15.04,2
-12.32,58.29,14.85,0
-12.41,58.55,14.82,0
-12.59,58.86,14.95,0
-12.72,59.18,14.93,0
-12.70,59.51,14.77,0
-12.68,59.77,14.54,0
-12.75,59.92,14.15,7
-12.87,60.09,13.60,11
-13.09,60.30,13.29,5
-13.41,60.41,12.79,3
-13.87,60.50,12.95,3
-14.19,60.70,12.84,0
-14.21,60.99,12.69,0
-14.04,61.37,12.46,5
-13.98,61.45,12.00,7
-14.15,61.34,11.95,5
-14.40,61.28,11.89,0
-14.56,61.41,11.88,0
-14.70,61.56,11.86,4
-14.89,61.61,12.05,2
-15.05,61.46,12.48,0
-15.32,61.20,13.21,7
-15.33,61.31,14.35,9
-15.14,61.47,16.25,14
-14.86,61.00,19.37,18
-14.26,59.73,22.51,28
-12.67,58.12,25.56,29
-9.89,54.43,24.39,52
-8.01,49.92,22.66,57
-5.25,48.34,21.41,101
-1.48,49.89,19.34,123
3.04,50.40,15.39,122
8.02,50.35,14.93,154
9.65,51.19,18.19,168
10.44,53.49,20.37,166
13.43,53.23,17.03,176
15.06,51.95,16.85,179
14.25,54.32,20.80,198
13.62,55.05,24.29,198
14.83,50.62,22.65,203
17.19,46.63,19.30,210
18.15,43.94,17.60,233
17.27,46.51,21.46,237
14.92,47.77,24.95,245
15.37,44.54,24.49,241
18.13,41.35,20.08,248
20.34,36.36,16.91,279
19.62,36.96,17.92,264
16.46,40.96,21.47,251
14.85,41.91,24.73,239
16.67,35.74,20.42,198
19.65,31.31,16.57,200
20.53,29.43,15.60,191
20.04,31.47,17.97,181
18.09,34.43,19.77,167
16.91,35.20,19.98,164
17.16,34.64,18.03,149
17.74,33.85,16.90,133
17.06,33.63,17.01,114
15.55,33.44,17.52,101
14.43,33.31,16.80,88
13.65,32.77,15.46,80
12.67,32.08,14.29,79
10.70,31.65,14.35,74
8.16,31.35,14.37,70
6.15,30.78,13.63,60
4.27,29.77,12.77,48
2.01,28.71,12.07,42
-0.32,27.71,11.15,39
-2.87,26.69,9.64,32
-5.82,25.95,8.05,46
-8.75,25.75,6.74,43
-11.73,26.17,5.37,36
-15.29,27.76,5.19,29
-18.97,29.99,5.86,29
-22.69,32.26,7.08,30
-26.71,33.99,7.83,30
-30.22,34.92,7.98,30
-32.26,35.58,7.33,35
-32.92,36.30,6.10,32
-32.72,36.95,4.70,26
-32.27,37.49,2.97,21
-32.12,38.34,2.45,17
-32.48,39.71,2.86,15
-32.96,41.24,3.74,9
-33.21,42.88,4.22,13
-33.01,44.31,4.22,13
-32.50,45.65,3.67,10
-31.95,46.75,2.73,11
-31.92,47.49,2.71,8
-32.43,47.82,3.26,9
-32.85,48.01,3.67,8
-32.84,48.03,3.80,10
-32.40,47.73,3.31,6
-31.46,47.40,1.99,4
-30.72,47.42,1.26,2
-30.53,47.84,1.33,5
-30.88,48.62,2.11,5
-31.36,49.17,3.13,4
-31.57,49.31,3.44,0
-31.46,49.16,3.15,1
-31.31,49.04,2.89,2
-31.17,49.13,2.76,7
-31.18,49.34,2.83,11
-31.02,50.05,3.10,14
-30.98,50.46,3.46,16
-31.07,50.47,3.71,16
-31.01,50.54,3.76,15
-30.82,50.72,3.90,10
-30.64,50.79,3.99,10
-30.38,50.86,3.85,12
-30.09,51.02,3.86,13
-29.94,51.15,3.99,8
-29.95,51.35,4.44,10
-30.10,51.58,5.07,13
-30.45,51.64,6.07,15
-30.80,51.63,7.25,29
-30.95,51.45,8.19,37
-30.70,51.37,8.90,44
-30.40,51.16,10.18,55
-30.39,50.94,13.01,61
-29.02,50.84,16.32,78
-25.46,49.07,16.65,100
-21.75,46.22,13.49,129
-17.05,42.54,10.55,156
-15.21,40.06,14.57,176
-13.54,41.68,18.60,193
-10.43,42.50,21.32,297
-6.58,40.93,18.70,258
-1.60,39.08,17.52,231
2.47,38.84,19.53,274
6.24,40.38,21.32,314
9.31,42.46,22.63,330
10.86,44.27,24.57,333
11.72,47.20,26.89,313
12.75,48.87,28.09,275
14.69,48.26,26.79,265
18.65,47.49,23.11,278
19.94,48.82,23.48,289
17.98,49.31,26.75,294
16.66,48.92,28.19,360
19.08,48.26,24.97,364
22.13,44.74,20.92,347
22.61,40.23,20.06,339
20.51,40.33,22.97,343
18.69,44.32,26.28,327
18.37,43.32,28.12,333
21.17,40.46,23.79,310
24.70,35.63,19.46,352
25.80,36.19,18.43,429
22.21,39.74,22.14,482
17.76,41.27,25.73,527
18.48,40.86,25.02,449
22.33,38.06,20.46,473
26.54,33.88,16.04,539
25.88,31.27,15.31,517
22.16,34.20,19.99,509
17.80,35.94,23.32,449
18.98,30.51,21.30,398
22.82,26.49,16.01,393
26.83,21.92,11.89,405
24.63,23.26,15.21,449
20.27,27.62,19.20,387
17.25,29.53,22.44,384
19.88,24.16,18.53,392
24.26,20.11,13.80,448
26.24,15.54,10.07,506
23.35,17.94,13.39,540
18.95,19.80,17.02,498
16.83,19.05,19.92,493
19.45,16.50,15.85,443
24.21,11.92,11.16,456
24.92,10.68,9.33,483
21.75,14.37,13.43,460
17.15,16.63,17.09,542
17.63,14.03,16.71,479
21.11,11.42,12.40,463
25.35,6.99,8.23,486
24.28,7.14,8.40,526
20.38,12.01,12.28,505
16.25,14.13,15.87,464
17.27,9.33,13.53,453
21.26,5.95,8.64,444
25.34,1.92,4.54,397
23.44,2.99,6.68,404
19.16,7.60,11.01,406
15.90,9.97,14.40,422
18.54,5.51,10.76,396
22.75,2.23,6.18,374
25.42,-1.71,2.56,360
22.76,-0.13,6.18,302
18.45,4.98,10.05,306
16.38,6.48,12.93,317
17.97,1.48,9.41,340
22.51,-2.30,4.98,299
24.58,-3.70,2.65,279
23.38,-1.08,6.06,275
19.63,3.89,9.92,263
17.84,3.34,11.60,236
18.85,3.04,9.30,214
21.77,1.51,6.26,190
23.73,0.70,5.16,190
23.89,1.54,5.91,180
22.42,3.68,7.64,188
21.01,5.86,8.75,202
20.19,7.09,9.06,172
20.07,7.61,8.63,160
20.31,8.09,8.22,141
20.28,8.68,8.28,127
19.83,9.13,8.34,112
19.26,9.11,8.01,101
18.66,8.70,7.51,89
17.62,8.53,7.35,79
16.27,8.67,7.07,69
14.62,8.16,6.38,73
12.64,6.76,4.68,74
10.47,5.32,3.16,67
7.72,4.01,1.99,64
4.62,3.11,0.92,61
1.32,2.51,0.66,52
-2.53,1.77,0.20,52
-6.89,1.27,0.20,52
-11.14,1.91,0.87,51
-14.91,3.74,1.48,47
-17.74,6.12,2.06,44
-19.49,7.94,2.05,44
-20.75,9.04,1.44,40
-21.83,9.79,0.38,40
-22.84,11.10,0.13,40
-23.82,13.15,0.56,37
-24.64,15.12,1.61,34
-24.96,16.20,2.03,34
-24.81,16.91,2.03,33
-24.51,17.87,2.44,40
-24.25,19.35,3.17,42
-24.08,21.12,4.04,41
-24.01,22.15,4.66,39
-23.90,22.38,4.75,34
-23.78,22.69,5.04,30
-23.65,23.69,5.99,33
-23.56,25.06,7.14,29
-23.40,26.07,7.86,30
-23.01,26.49,8.05,35
-22.51,26.63,7.99,39
-21.99,26.97,8.09,32
-21.61,27.99,8.82,36
-21.52,29.27,9.85,36
-21.63,30.02,10.61,28
-21.68,30.23,10.84,32
-21.54,30.35,10.87,33
-21.36,30.66,11.26,40
-21.18,31.25,11.96,42
-20.88,31.94,12.62,37
-20.32,32.48,12.94,36
-19.57,32.97,12.97,30
-18.97,33.63,13.17,27
-18.70,34.44,13.90,45
-18.55,34.83,14.80,57
-17.68,33.87,15.19,65
-15.18,31.63,13.51,56
-12.44,29.58,11.33,100
-9.57,29.58,11.37,135
-6.14,31.61,13.54,147
-2.91,32.96,16.62,162
-0.08,32.38,18.05,205
2.64,30.99,16.92,212
7.10,31.11,15.15,198
11.85,33.52,13.54,186
13.53,36.09,16.59,209
12.77,38.34,20.25,202
13.33,39.41,21.07,233
16.93,40.40,18.70,228
20.48,40.63,14.92,257
20.15,41.03,15.92,394
15.96,43.76,20.14,403
14.51,46.08,22.23,350
17.07,46.09,18.34,340
20.77,43.37,13.94,320
21.79,41.68,12.87,314
19.02,43.81,17.16,321
15.87,47.84,20.88,316
15.93,45.86,20.97,332
18.92,42.99,16.98,308
22.38,38.47,12.87,317
22.34,36.68,12.93,345
19.49,40.06,17.66,328
17.05,41.62,21.27,341
17.61,38.28,20.39,298
20.76,35.38,16.42,352
23.68,30.37,12.20,414
23.23,30.83,13.10,440
19.15,35.23,16.96,372
16.19,36.56,20.77,340
17.48,31.17,17.59,352
21.57,27.11,13.01,327
24.20,24.58,9.58,370
22.29,26.28,13.06,329
17.83,30.67,16.91,328
16.06,31.38,19.83,329
18.81,25.76,15.94,323
23.19,21.95,11.73,303
24.85,17.95,9.34,398
22.69,19.55,12.70,392
19.03,23.92,16.25,367
17.64,23.23,18.47,374
20.05,20.75,14.80,335
24.41,16.53,10.80,336
25.21,16.36,10.19,344
22.53,20.42,13.60,385
19.40,21.40,17.08,417
18.96,18.55,17.13,410
21.74,16.48,13.49,413
25.13,13.95,9.70,421
24.97,14.45,10.46,503
21.76,18.96,14.03,452
19.37,19.06,16.76,393
20.08,17.49,14.68,381
23.72,15.00,10.82,341
26.23,13.55,7.78,369
25.57,15.19,9.84,350
22.26,18.59,13.50,364
20.31,17.56,15.26,317
21.19,16.98,13.27,298
24.06,15.55,10.55,265
26.36,14.63,8.69,251
26.61,15.31,9.09,247
24.88,18.13,11.19,244
22.82,20.01,13.14,229
22.34,20.11,13.09,202
23.45,19.42,11.34,179
24.75,18.64,10.81,199
25.48,18.67,10.93,185
25.76,19.26,10.82,166
25.90,19.68,10.53,139
26.10,20.36,10.09,123
26.31,21.15,9.56,112
26.23,21.87,9.12,104
25.83,22.39,8.84,89
25.34,22.74,8.29,83
24.83,23.07,7.63,82
24.16,23.30,7.27,76
23.34,23.08,6.65,66
22.06,22.26,6.22,74
20.34,21.82,6.45,72
18.11,22.13,7.08,63
15.42,22.42,7.35,58
12.74,22.33,7.37,57
10.06,22.03,7.09,55
7.46,21.69,6.40,49
5.34,21.47,5.26,50
2.83,21.65,4.43,49
-0.61,22.64,4.35,46
-4.04,24.12,5.03,44
-7.85,25.38,5.34,44
-12.04,26.26,6.11,41
-16.12,26.89,8.18,36
-19.35,27.81,9.32,36
-20.02,28.21,8.58,35
-18.16,27.91,5.11,31
-15.95,27.41,2.22,26
-14.57,26.92,0.47,28
-14.65,27.13,0.64,29
-16.09,28.30,1.99,28
-17.86,30.04,3.18,34
-19.20,31.36,3.55,34
-20.19,32.23,2.94,33
-21.23,32.86,1.82,28
-22.61,33.63,1.66,27
-24.29,34.52,2.19,31
-25.98,35.28,2.94,28
-27.25,35.74,3.20,28
-28.05,36.20,3.31,31
-28.70,36.76,3.74,30
-29.13,37.18,4.08,27
-29.14,37.41,3.71,30
-29.04,37.58,3.27,31
-29.19,37.86,3.51,30
-29.46,38.36,4.00,31
-29.67,38.98,4.26,33
-29.81,39.57,4.30,33
-30.12,40.10,4.39,32
-30.66,40.44,4.49,36
-31.12,40.72,4.16,38
-31.78,41.05,4.31,38
-32.43,41.34,4.45,36
-32.80,41.52,4.30,36
-33.04,41.73,3.81,37
-33.44,42.03,3.80,44
-34.06,42.29,4.10,45
-34.98,42.61,4.80,42
-35.81,42.72,5.33,36
-36.03,42.54,5.13,34
-35.77,42.31,4.23,37
-35.61,42.41,4.07,37
-35.75,42.61,4.44,35
-36.04,42.83,5.03,38
-36.17,42.98,5.28,39
-36.19,42.93,5.20,35
-36.19,42.96,5.16,35
-36.20,43.20,5.49,38
-36.19,43.45,5.68,37
-36.19,43.77,5.61,32
-36.31,44.22,5.99,35
-36.50,44.54,6.39,36
-36.63,44.72,6.34,35
-36.47,44.90,6.55,30
-36.78,45.44,7.38,30
-37.27,45.79,7.87,34
-37.68,46.07,7.94,29
-38.17,46.57,8.57,29
-38.61,47.51,9.37,30
-38.72,48.29,9.88,28
-38.50,48.68,9.87,26
-38.06,48.79,9.63,28
-37.69,48.78,9.32,29
-37.58,48.84,9.34,26
-37.58,49.14,9.59,25
-37.49,49.62,10.00,31
-37.38,49.80,9.97,34
-37.29,49.85,9.80,31
-37.15,50.06,9.73,30
-37.10,50.23,9.93,29
-37.15,50.23,10.13,26
-37.03,50.23,10.02,24
-36.71,50.36,9.89,25
-36.44,50.51,9.84,23
-36.31,50.66,9.85,19
-36.26,50.83,10.00,24
-36.22,51.02,10.13,27
-36.14,51.07,10.13,26
-35.91,51.06,9.89,25
-35.52,51.10,9.66,28
-35.07,51.18,9.39,27
-34.60,51.22,9.24,28
-34.30,51.10,9.19,30
-34.01,50.81,9.00,33
-33.68,50.61,8.77,43
-33.41,50.70,8.95,63
-33.39,50.92,9.55,77
-33.61,50.77,10.31,101
-34.11,49.31,10.62,111
-35.14,47.26,12.29,138
-35.69,45.62,15.82,160
-32.72,44.98,19.18,190
-28.56,44.13,17.81,234
-23.92,38.68,13.82,264
-23.75,35.10,16.26,279
-28.07,33.84,19.73,260
-26.52,33.22,23.02,314
-23.31,29.64,21.14,312
-18.39,26.08,16.42,297
-12.88,22.05,12.71,263
-10.52,20.90,16.35,252
-11.72,22.77,20.00,265
-9.01,27.17,22.65,271
-4.39,26.91,18.76,256
-1.35,24.89,17.55,294
-2.37,25.82,21.10,319
-4.39,29.95,24.75,359
-3.38,31.09,26.65,365
0.51,28.95,22.24,412
5.25,25.47,17.89,421
6.35,23.61,18.12,399
4.24,25.86,22.17,373
2.71,27.24,25.24,389
3.77,23.83,25.36,381
7.85,20.82,20.75,402
11.79,15.96,16.55,454
12.80,18.43,17.01,423
9.36,20.43,20.43,399
6.61,21.37,23.83,421
8.76,16.32,20.37,384
13.59,12.49,15.85,361
16.70,9.10,12.19,389
15.34,8.63,13.79,413
11.61,13.38,17.10,408
10.35,15.34,20.23,399
11.85,10.01,17.48,432
15.97,5.27,12.90,394
18.32,3.30,9.98,399
16.99,6.38,12.88,445
13.11,8.29,16.41,409
11.04,7.70,18.42,427
13.47,3.62,15.32,403
17.87,0.14,11.14,349
18.99,-3.77,9.73,453
17.83,-3.94,10.55,456
15.86,1.17,13.89,530
13.83,3.06,17.11,531
14.23,-1.71,15.01,472
18.14,-6.37,10.50,429
20.63,-8.54,7.99,420
19.75,-7.57,8.98,441
16.22,-2.20,12.58,439
13.87,0.02,15.80,415
14.78,-4.72,14.65,454
19.59,-8.06,10.41,396
21.76,-10.82,8.56,441
21.42,-10.08,9.22,444
20.02,-5.85,11.61,466
17.49,-3.75,15.06,509
17.12,-5.88,15.79,434
19.91,-8.00,12.10,368
22.96,-10.73,9.01,384
23.11,-10.88,9.16,440
22.21,-8.20,10.17,453
19.46,-6.05,13.73,473
18.73,-5.76,14.89,441
20.58,-10.80,11.66,481
23.68,-14.68,8.04,411
24.47,-15.71,7.22,471
23.06,-13.35,9.41,516
20.58,-11.26,12.55,475
19.59,-11.87,13.69,414
21.35,-13.75,10.57,386
24.31,-17.26,7.59,333
24.93,-17.53,7.21,331
24.41,-15.07,9.06,336
22.67,-10.27,11.20,307
22.26,-11.40,11.51,352
23.49,-13.03,9.16,340
25.51,-15.01,7.53,311
26.25,-14.65,7.70,296
25.97,-12.50,8.54,312
24.87,-9.33,9.78,356
24.32,-10.94,10.23,348
25.01,-11.34,9.37,299
27.23,-12.11,8.15,291
28.18,-11.94,7.86,278
28.10,-10.21,8.24,318
26.75,-7.05,10.08,280
26.29,-8.51,10.54,284
27.16,-9.18,9.14,327
28.77,-10.76,7.99,329
29.27,-10.24,8.48,327
28.79,-7.74,9.39,325
27.85,-5.27,10.42,337
27.52,-4.56,10.60,325
28.56,-4.44,9.53,341
30.05,-5.06,8.59,301
30.68,-4.93,8.79,366
30.26,-2.62,9.69,353
29.42,0.32,10.76,340
28.95,-1.96,10.97,320
29.54,-3.13,10.07,282
31.39,-3.84,8.62,254
31.90,-3.15,9.03,241
31.57,-1.60,9.47,244
31.02,1.20,10.17,215
30.43,2.53,10.62,201
30.42,2.50,10.16,188
31.25,2.54,9.91,182
31.51,3.16,10.39,166
31.62,3.60,10.12,148
31.98,3.67,9.18,128
31.59,3.54,8.22,110
30.69,2.81,6.98,100
29.80,2.48,6.07,95
28.51,3.41,5.27,88
26.89,4.32,4.30,77
25.09,4.32,2.30,80
23.22,3.34,-0.56,75
21.28,2.10,-3.71,66
18.65,1.03,-5.86,64
15.62,0.63,-7.26,63
11.93,1.49,-7.94,56
7.79,2.28,-9.47,49
3.60,2.40,-11.98,50
0.23,2.52,-14.01,49
-3.25,3.19,-15.93,42
-7.17,5.05,-16.90,44
-11.17,7.64,-17.02,43
-14.55,10.32,-16.84,42
-17.17,11.69,-17.83,42
-18.55,11.46,-20.56,42
-19.90,11.02,-22.53,44
-21.58,11.63,-22.90,38
-23.21,13.11,-22.33,47
-24.63,14.90,-21.62,53
-25.92,16.34,-21.46,63
-27.17,16.87,-21.37,57
-28.34,17.01,-21.25,56
-29.02,17.20,-21.62,52
-29.51,17.76,-21.65,47
-30.20,18.63,-20.87,45
-30.71,19.54,-20.00,46
-30.75,20.13,-19.94,47
-30.90,20.59,-19.70,40
-31.35,20.78,-19.41,44
-31.81,20.74,-19.45,45
-32.11,20.71,-19.66,44
-32.24,21.07,-19.76,44
-32.61,21.63,-19.30,45
-33.39,22.05,-18.67,49
-34.21,22.15,-18.19,45
-34.77,22.06,-18.15,44
-35.17,21.75,-18.27,46
-35.66,21.77,-18.18,48
-36.47,22.02,-17.24,46
-37.21,22.27,-16.65,50
-37.72,22.41,-16.25,50
-38.03,22.34,-16.24,53
-38.36,22.08,-16.37,52
-38.73,22.14,-15.95,48
-39.05,22.57,-15.34,48
-39.28,23.05,-14.69,45
-39.59,23.18,-14.10,44
-39.84,23.09,-13.70,42
-39.99,22.99,-13.54,94
-40.16,23.04,-13.16,96
-40.49,23.03,-12.71,97
-40.69,23.21,-12.34,94
-40.83,23.64,-11.70,92
-41.12,23.91,-11.03,91
-41.62,23.89,-10.16,85
-42.05,23.77,-9.59,78
-42.35,23.74,-8.98,72
-42.61,23.68,-8.36,71
-42.76,23.69,-7.83,69
-42.74,23.83,-7.26,63
-42.65,23.93,-6.62,64
-42.37,24.06,-6.45,68
-42.37,24.04,-6.05,67
-42.54,24.24,-5.49,64
-42.71,24.66,-4.86,65
-42.84,24.90,-4.36,64
-42.88,25.00,-3.99,67
-42.91,25.16,-3.59,63
-43.00,25.25,-3.09,60
-43.14,25.27,-2.25,61
-43.29,25.21,-1.36,62
-43.25,25.03,-0.50,67
-42.65,24.98,0.60,73
-41.40,25.06,1.06,67
-39.78,25.13,0.86,68
-38.54,25.13,1.24,68
-38.04,25.09,2.22,70
-37.84,25.10,3.28,64
-37.44,25.27,4.02,68
-36.81,25.51,4.22,66
-36.26,25.79,4.62,62
-35.80,26.12,4.94,63
-35.57,26.41,5.33,63
-35.40,26.72,5.69,66
-35.16,27.04,5.91,65
-34.96,27.27,6.06,70
-34.74,27.67,6.28,80
-34.37,28.17,6.52,76
-34.00,28.21,6.60,75
-33.77,27.92,6.74,75
-33.53,27.87,7.05,78
-33.19,27.91,7.38,77
-32.43,27.98,7.47,89
-30.81,28.33,7.53,94
-29.37,28.51,8.77,114
-27.82,28.07,11.12,103
-25.16,26.09,12.15,103
-22.23,25.24,14.09,102
-19.68,25.65,18.14,102
-17.52,26.31,22.12,103
-14.84,26.78,25.77,105
-11.85,27.34,29.74,104
-8.20,28.74,34.05,102
-3.65,31.61,37.04,106
-1.02,35.41,40.49,108
0.05,37.98,43.66,114
2.50,40.32,45.18,118
6.50,41.64,44.61,132
8.48,42.88,45.90,132
9.10,44.90,47.78,153
10.46,45.85,47.91,169
12.05,46.84,48.47,204
13.26,47.64,48.33,280
13.49,48.04,48.93,312
13.14,48.24,50.70,300
13.99,47.94,50.96,281
16.83,48.72,50.45,266
18.99,48.14,49.08,262
19.77,48.90,49.12,273
19.59,50.31,48.94,282
18.69,50.64,50.02,300
18.42,50.36,51.26,314
20.40,48.78,50.81,279
23.24,47.34,48.92,272
24.11,47.04,48.22,267
23.25,48.51,48.64,342
22.34,49.46,49.42,351
22.89,49.22,48.34,340
24.77,46.98,46.17,346
25.71,44.81,44.33,391
24.73,43.71,45.53,382
23.21,46.29,47.55,362
23.61,44.98,47.27,358
24.55,43.50,45.61,371
26.91,40.81,42.68,335
27.71,39.62,42.40,351
27.99,40.91,42.53,504
27.53,42.37,42.30,550
26.85,41.91,41.88,536
26.64,40.02,41.44,460
27.99,39.91,41.31,429
29.09,39.16,40.30,381
30.23,38.02,38.33,381
29.96,38.76,37.76,398
27.88,39.63,39.12,350
27.28,39.68,39.26,369
29.16,37.89,36.89,388
30.45,34.88,35.25,360
30.47,33.72,34.73,368
29.76,37.07,35.99,365
28.73,36.93,36.97,346
28.79,33.12,36.11,340
30.56,29.45,33.91,312
31.65,27.04,32.47,285
32.01,27.19,32.67,282
31.65,29.07,32.14,314
30.22,30.73,32.52,324
28.76,30.62,33.37,288
29.74,30.52,32.23,290
31.53,28.92,30.91,281
32.49,27.22,29.17,269
32.63,27.31,28.86,280
31.03,30.11,30.48,324
30.05,28.88,31.06,323
30.12,27.55,30.07,306
31.67,24.62,28.97,304
33.10,23.62,28.10,330
33.50,23.53,27.24,336
32.66,25.40,27.49,297
30.56,26.99,29.09,329
30.20,27.35,28.81,291
31.53,26.39,27.52,278
33.49,24.59,26.34,247
34.42,23.96,24.99,231
34.39,24.38,24.23,232
32.57,26.95,25.88,341
31.31,25.18,26.57,357
31.56,24.11,25.82,362
33.74,22.37,24.46,339
35.21,21.97,23.80,345
35.61,21.59,22.78,368
35.29,23.81,22.94,333
33.79,23.39,24.35,317
33.27,20.19,23.91,328
34.23,17.59,22.86,311
35.29,16.24,22.23,315
36.26,17.01,22.29,337
36.40,18.05,21.15,358
35.40,19.64,21.41,329
33.96,19.81,22.49,310
34.57,20.67,22.13,294
35.81,19.53,21.25,289
36.76,18.26,20.23,291
37.37,18.75,19.24,290
36.19,20.26,20.27,313
34.90,22.48,21.36,350
34.73,20.01,21.40,308
35.84,17.71,20.39,290
37.57,16.19,18.67,309
38.02,15.93,18.22,320
37.53,17.82,18.55,301
35.87,17.45,19.74,486
34.76,15.42,20.58,449
35.41,13.94,19.59,382
37.64,11.21,17.40,357
38.28,10.72,16.86,420
37.99,12.01,16.57,425
36.21,14.74,17.22,422
34.35,15.33,18.50,440
34.74,15.63,17.93,453
36.06,14.20,16.93,390
36.84,12.25,16.13,338
37.40,12.59,15.71,313
36.39,14.76,16.66,364
35.23,16.62,17.52,336
35.13,16.29,17.07,337
36.17,14.85,16.60,311
37.76,14.41,15.82,290
38.26,14.63,15.64,298
37.70,16.20,15.85,336
36.49,17.80,16.57,340
35.58,17.81,17.29,325
36.50,16.97,16.61,315
38.44,15.69,15.21,279
38.92,15.18,14.69,339
38.56,16.78,14.46,335
36.75,18.37,15.68,446
35.88,19.72,16.33,394
36.36,19.32,15.85,368
38.01,17.51,15.14,324
39.33,17.00,14.08,315
39.42,17.50,13.95,408
38.58,18.98,14.12,405
36.99,20.21,15.35,397
36.36,20.39,15.80,366
37.07,19.20,15.46,336
38.83,18.28,14.67,319
39.62,18.11,13.97,449
39.54,18.98,13.30,448
37.82,20.26,14.55,411
36.57,21.14,15.66,371
36.87,21.54,15.52,370
37.65,20.86,15.35,336
39.09,19.37,13.57,343
39.52,18.69,12.63,369
38.91,20.55,13.76,363
36.47,20.89,16.02,356
35.43,20.16,16.49,330
37.12,18.85,15.33,324
39.70,16.33,13.27,559
40.17,14.93,12.41,623
39.82,17.20,11.44,645
35.90,18.99,14.70,645
33.04,18.34,17.39,612
34.24,13.77,15.36,591
38.12,9.32,12.28,564
39.45,7.09,10.39,519
38.70,8.31,10.62,550
36.52,12.52,11.47,586
32.95,12.95,14.70,550
32.44,10.40,14.64,496
34.59,8.10,12.99,442
37.10,5.02,10.86,388
37.76,4.41,9.84,388
37.15,6.02,9.74,442
34.32,9.94,11.65,490
31.36,9.30,14.59,467
32.05,7.96,13.39,415
35.90,5.04,10.80,373
37.68,2.77,8.78,357
37.26,3.87,8.33,343
35.16,8.20,9.39,372
31.54,7.81,12.01,346
30.57,7.19,11.74,306
32.11,6.44,10.62,272
33.54,5.32,10.60,276
34.84,5.09,10.22,244
35.56,5.86,9.36,230
35.31,6.47,8.66,205
34.47,7.56,8.34,181
32.98,8.73,8.26,160
31.62,8.64,7.03,146
30.86,7.20,4.86,128
30.18,5.69,2.61,123
28.52,4.86,0.40,129
26.05,3.99,-2.39,146
23.31,3.15,-5.05,132
20.24,2.31,-8.11,124
16.77,2.81,-9.36,117
12.63,3.88,-11.28,103
7.81,4.51,-13.10,96
3.30,5.74,-13.83,93
-0.16,6.61,-15.26,89
-2.52,6.26,-17.94,86
-4.68,5.77,-19.76,80
-7.53,6.23,-20.78,78
-10.86,7.04,-22.35,73
-13.91,7.95,-23.15,67
-16.41,8.71,-24.06,67
-19.06,9.28,-24.19,64
-21.42,10.09,-24.07,59
-23.43,11.68,-23.15,63
-24.98,14.05,-22.41,67
-25.98,15.73,-23.12,65
-27.46,15.81,-24.03,60
-29.33,14.82,-25.41,58
-31.09,14.05,-26.35,55
-33.05,13.85,-25.92,54
-35.31,13.84,-24.72,53
-37.16,13.68,-23.72,52
-38.27,13.54,-23.25,52
-38.49,13.43,-23.66,46
-38.60,13.07,-23.92,49
-39.00,12.62,-23.59,49
-39.40,12.76,-22.96,42
-39.75,13.18,-21.52,41
-39.94,13.36,-20.76,42
-40.00,13.19,-20.26,43
-39.96,12.98,-20.16,41
-39.90,13.11,-19.72,39
-39.82,13.78,-18.81,45
-39.88,14.62,-17.52,48
-40.13,14.86,-16.41,49
-40.05,14.51,-16.57,53
-39.73,14.37,-16.72,62
-39.74,14.42,-16.03,64
-40.07,14.80,-14.85,76
-40.59,15.11,-13.67,76
-41.17,14.99,-12.70,72
-41.40,14.88,-12.42,64
-41.51,14.97,-12.05,60
-42.07,15.05,-11.11,57
-42.54,15.36,-10.09,52
-42.50,15.82,-9.46,48
-42.34,16.15,-8.94,47
-42.52,16.35,-8.01,48
-42.74,16.71,-6.86,44
-42.82,17.10,-5.89,45
-42.80,17.34,-5.28,46
-42.79,17.57,-4.75,44
-42.93,17.86,-4.02,45
-43.19,18.06,-3.06,47
-43.37,18.26,-2.26,40
-43.40,18.38,-1.75,40
-43.72,18.15,-1.27,47
-43.92,18.39,-0.76,52
-44.42,18.67,0.41,47
-44.88,18.73,1.19,46
-45.05,19.04,1.60,48
-45.12,19.49,2.19,47
-45.07,19.80,2.60,40
-44.96,20.17,2.99,38
-44.85,20.54,3.40,306
-44.89,20.71,3.85,260
-44.96,20.86,4.23,220
-44.88,21.15,4.59,196
-44.83,21.43,4.94,167
-44.88,21.64,5.28,146
-44.99,21.76,5.73,136
-45.10,21.82,6.12,141
-45.05,21.93,6.35,151
-44.66,22.58,6.58,156
-44.37,23.10,6.95,157
-44.60,23.82,8.02,156
-45.58,24.31,10.64,160
-46.88,23.34,13.19,289
-46.86,21.65,15.28,283
-44.21,20.84,18.78,412
-41.00,20.79,19.88,409
-37.21,18.46,22.74,492
-35.57,15.23,26.34,562
-32.47,11.08,29.86,517
-29.17,6.94,26.84,482
-24.09,10.03,21.81,508
-19.39,13.91,17.93,443
-21.34,13.18,21.10,504
-24.52,13.91,24.33,497
-27.78,17.58,27.73,456
-24.67,18.14,28.82,452
-19.87,17.55,24.52,409
-14.67,15.77,20.57,358
-14.61,15.10,22.58,310
-17.83,16.65,26.60,284
-19.44,17.40,29.14,240
-18.21,16.69,28.00,210
-14.71,16.27,25.79,186
-12.88,16.80,25.39,177
-12.12,18.11,25.41,157
-11.57,19.26,23.40,137
-10.77,19.75,20.10,116
-10.84,20.81,16.98,100
-12.15,22.20,14.43,92
-14.41,23.45,11.86,85
-16.99,24.55,8.32,80
-19.32,25.26,5.10,78
-22.05,25.82,1.99,74
-25.40,26.38,-1.34,67
-28.86,26.57,-3.94,60
-32.63,26.40,-6.30,54
-36.76,26.08,-8.27,52
-40.72,25.87,-9.39,50
-44.72,25.66,-10.11,47
-47.28,25.27,-11.94,56
-48.31,24.74,-14.70,56
-49.52,24.34,-15.64,49
-51.03,24.00,-16.26,50
-52.31,24.06,-16.48,48
-53.53,24.33,-16.18,46
-54.63,24.70,-15.48,39
-55.18,25.16,-14.59,36
-55.04,25.49,-14.22,37
-54.42,25.19,-15.02,34
-54.05,24.83,-15.80,34
-54.05,25.41,-14.62,37
-54.24,26.27,-12.64,41
-54.27,26.42,-11.36,36
-54.33,26.15,-10.05,52
-54.26,25.93,-7.21,67
-53.73,25.28,-4.37,93
-52.47,23.19,-1.42,173
-51.00,20.35,1.07,201
-51.69,18.32,4.57,268
-52.38,17.79,7.74,327
-48.73,14.24,11.01,376
-45.15,9.70,13.32,393
-41.70,5.96,9.03,445
-37.47,1.32,6.69,448
-32.67,-1.81,2.38,440
-27.74,1.28,-1.94,434
-25.86,5.61,-0.81,434
-27.40,7.32,2.57,480
-31.63,10.92,5.64,455
-28.90,13.30,5.49,406
-24.39,10.66,1.50,401
-19.42,7.60,-2.59,358
-18.74,5.15,-3.55,322
-20.72,5.95,0.43,267
-24.34,10.32,4.23,223
-24.54,10.18,4.51,195
-22.06,8.73,1.07,178
-19.12,6.64,-1.81,152
-17.81,6.28,-2.96,136
-18.43,6.77,-2.25,121
-19.36,7.44,-2.41,105
-19.67,7.57,-4.07,93
-19.77,6.92,-5.99,89
-20.12,5.56,-7.92,81
-20.96,3.92,-9.65,71
-21.98,3.00,-10.95,66
-23.65,3.12,-11.80,66
-25.71,3.84,-13.31,59
-27.19,4.20,-16.12,53
-29.32,4.00,-18.78,54
-31.95,3.05,-21.11,51
-35.15,1.66,-22.90,214
-39.07,-0.01,-24.41,287
-43.37,-0.81,-25.07,254
-47.85,0.10,-25.08,227
-51.71,1.98,-25.53,197
-55.53,3.62,-25.97,171
-58.82,4.44,-26.46,154
-61.35,4.92,-27.29,140
-62.79,5.91,-27.10,132
-63.13,7.61,-26.51,118
-62.45,9.31,-26.48,107
-61.15,10.63,-27.55,94
-59.98,11.97,-28.50,86
-59.48,13.08,-28.13,80
-59.77,13.58,-27.07,71
-60.01,13.83,-26.36,66
-59.91,14.34,-26.06,64
-59.85,14.99,-25.34,62
-60.04,15.34,-24.57,56
-60.07,15.40,-24.20,57
-59.74,15.55,-24.54,54
-59.69,16.08,-23.78,52
-60.10,16.47,-22.29,54
-60.27,16.70,-21.00,55
-60.04,16.69,-20.08,53
-59.52,16.56,-19.33,50
-58.93,16.61,-18.71,50
-58.46,16.82,-17.83,54
-58.21,16.94,-16.12,64
-57.83,16.66,-14.70,59
-57.22,16.15,-13.62,61
-56.51,15.92,-12.50,90
-55.67,16.74,-11.43,94
-55.39,18.22,-9.68,224
-56.56,19.59,-6.86,298
-60.02,20.31,-3.13,273
-63.14,19.33,0.22,348
-61.46,14.49,3.60,368
-57.58,11.53,5.76,527
-53.57,7.76,3.01,621
-48.67,2.61,4.53,621
-44.08,1.22,7.80,602
-39.53,1.13,10.45,542
-34.21,-0.48,5.78,528
-29.30,0.23,1.73,607
-27.12,3.44,1.40,674
-29.18,7.69,4.75,651
-32.25,9.43,8.22,564
-31.88,6.42,8.79,495
-26.94,3.56,4.42,464
-21.80,-0.74,0.37,456
-21.48,-0.81,0.71,433
-23.85,3.75,4.12,408
-26.82,5.75,7.85,358
-26.88,2.13,7.44,315
-22.90,-0.28,4.10,287
-18.68,-2.04,0.78,257
-17.13,-2.61,0.11,213
-17.41,-2.27,0.06,208
-18.23,-1.17,-0.08,207
-19.03,0.64,-0.22,196
-19.95,2.53,-0.80,163
-21.03,3.12,-1.45,141
-21.69,2.45,-3.43,125
-21.82,1.31,-6.20,107
-22.19,0.70,-8.57,95
-23.44,0.56,-10.76,84
-25.73,0.64,-13.01,75
-27.85,1.02,-15.48,64
-30.02,1.70,-17.40,58
-33.93,2.82,-18.86,55
-37.94,4.31,-20.18,59
-41.92,6.39,-21.48,54
-45.49,9.47,-23.21,46
-48.74,13.46,-23.59,43
-51.62,17.65,-22.68,35
-53.42,20.91,-23.18,33
-53.59,22.16,-26.09,31
-53.13,22.74,-29.16,29
-53.07,23.70,-31.18,30
-53.58,25.13,-31.79,25
-54.72,27.02,-31.68,26
-55.94,28.07,-30.75,25
-56.55,28.18,-30.62,24
-56.17,27.83,-32.08,27
-55.40,27.76,-33.62,27
-54.92,28.16,-34.18,24
-55.15,28.66,-33.66,30
-55.61,29.06,-32.71,38
-55.98,29.12,-32.33,31
-56.20,28.72,-32.43,26
-56.27,28.23,-32.74,26
-56.30,28.03,-32.56,25
-56.09,28.24,-32.45,19
-55.85,28.63,-32.27,19
-55.87,28.96,-31.52,17
-55.85,29.08,-31.09,17
-55.82,29.11,-30.71,15
-55.85,29.11,-30.27,16
-55.68,29.21,-29.75,17
-55.36,29.45,-29.40,15
-55.17,29.65,-28.72,21
-55.12,29.75,-28.04,22
-55.06,29.88,-27.41,16
-55.02,29.95,-26.65,12
-54.73,30.05,-26.40,14
-54.44,30.20,-26.05,16
-54.34,30.34,-25.41,14
-54.24,30.48,-24.43,15
-54.00,30.77,-24.02,21
-53.92,30.94,-23.22,25
-53.91,31.07,-22.35,20
-53.84,31.19,-21.35,17
-53.70,31.14,-20.60,14
-53.53,31.10,-19.92,147
-53.42,31.23,-18.95,398
-53.25,31.46,-17.98,321
-53.00,31.56,-17.11,258
-52.63,31.60,-16.76,200
-52.13,31.70,-16.56,169
-51.53,32.09,-16.55,149
-51.21,32.71,-15.87,131
-51.40,33.24,-14.35,106
-51.79,33.64,-12.17,115
-51.41,34.37,-10.43,167
-50.22,34.87,-9.33,245
-49.01,33.68,-9.70,263
-48.45,31.84,-10.15,297
-50.02,29.96,-6.07,303
-49.19,30.95,-2.49,301
-45.47,28.78,-1.19,272
-41.27,26.41,-1.95,274
-38.89,23.36,0.31,276
-39.78,19.59,3.79,265
-38.11,17.41,7.10,280
-34.76,14.10,10.00,314
-30.67,10.09,6.66,318
-25.20,6.11,4.14,339
-19.89,4.48,4.20,304
-14.91,4.76,4.40,280
-12.37,6.86,7.36,267
-11.78,9.43,9.16,251
-12.48,12.37,11.32,282
-14.07,14.35,14.40,283
-14.04,13.55,15.08,241
-10.66,12.47,12.80,247
-6.85,12.14,10.73,268
-5.56,13.44,11.34,271
-6.74,15.91,14.24,257
-7.56,17.65,15.38,235
-6.81,17.92,14.06,195
-5.62,16.46,12.05,162
-5.11,15.16,11.69,161
-5.00,15.11,11.91,155
-4.34,14.65,10.04,128
-3.43,13.97,7.24,112
-3.47,13.88,4.67,100
-4.69,14.29,2.89,90
-7.11,15.14,1.03,81
-9.64,15.92,-1.62,76
-12.25,16.24,-4.46,73
-15.14,16.31,-6.85,62
-18.96,16.33,-7.71,59
-23.44,17.19,-7.98,56
-28.23,19.39,-7.66,50
-32.51,22.32,-7.58,40
-36.21,25.48,-7.79,38
-38.38,28.62,-9.58,39
-39.37,31.41,-11.05,38
-39.88,34.06,-12.23,36
-40.22,36.41,-13.27,35
-40.47,38.06,-14.24,38
-40.90,39.29,-15.01,32
-41.58,40.44,-15.14,32
-42.23,41.42,-14.64,32
-42.59,42.34,-14.30,30
-42.59,43.21,-13.99,24
-42.40,43.97,-13.61,23
-42.09,44.04,-13.54,376
-41.78,43.73,-13.62,321
-41.28,43.67,-13.92,260
-40.77,43.88,-14.21,212
-40.49,44.30,-13.88,172
-40.42,44.61,-13.56,136
-40.61,44.72,-13.27,118
-40.85,44.79,-12.88,104
-40.90,44.76,-12.86,84
-40.92,44.67,-13.10,70
-41.16,44.77,-12.91,62
-41.41,44.96,-12.46,55
-41.64,44.97,-12.15,46
-41.72,44.89,-12.27,42
-41.76,44.78,-12.19,38
-41.80,44.63,-12.02,32
-41.77,44.42,-12.17,28
-41.83,44.46,-11.96,29
-41.98,44.57,-11.58,31
-42.08,44.73,-10.99,25
-42.17,44.82,-10.74,20
-42.19,44.77,-10.76,21
-42.15,44.48,-10.90,22
-42.11,44.20,-11.05,19
-42.12,44.08,-11.01,22
-42.16,44.14,-10.79,23
-42.26,44.33,-10.42,20
-42.40,44.52,-9.88,23
-42.46,44.54,-9.66,23
-42.50,44.38,-9.55,21
-42.57,44.23,-9.42,16
-42.54,44.18,-9.37,14
-42.42,44.25,-9.39,18
-42.42,44.32,-9.16,17
-42.57,44.27,-8.74,17
-42.61,44.25,-8.47,16
-42.55,44.24,-8.23,16
-42.65,44.15,-7.67,14
-42.68,44.21,-7.00,15
-42.57,44.22,-6.35,17
-42.38,44.08,-6.02,33
-42.24,44.01,-5.71,34
-41.77,44.19,-5.29,32
-40.89,44.22,-5.52,34
-39.99,44.09,-5.81,31
-39.61,44.25,-5.39,34
-40.14,44.77,-3.13,35
-40.32,45.49,-1.03,44
-39.83,45.32,1.70,63
-38.49,42.69,2.77,65
-36.57,39.17,3.11,63
-33.46,35.25,4.97,75
-30.66,32.42,8.07,121
-27.62,29.24,9.89,173
-24.40,25.77,13.31,145
-22.04,21.90,16.70,149
-19.32,18.32,19.58,171
-15.36,15.05,20.92,184
-9.88,14.25,21.31,200
-5.10,14.26,22.70,224
-3.15,14.67,26.37,205
-0.22,16.52,26.68,231
3.49,17.96,24.60,261
4.67,19.36,24.94,306
2.98,21.87,28.21,653
1.77,20.52,30.40,567
2.76,18.72,29.33,489
5.91,15.85,27.20,409
8.14,15.96,26.54,406
7.92,17.16,28.18,364
6.72,19.17,29.84,411
7.12,19.51,29.74,372
11.01,18.59,25.50,355
13.52,17.57,23.26,347
13.46,18.34,24.26,334
11.03,21.41,26.86,317
9.96,20.74,27.70,289
10.58,19.44,26.54,291
13.75,16.15,23.70,282
16.08,14.79,21.18,246
16.46,15.58,22.10,221
15.00,18.84,23.45,199
13.82,21.40,23.36,171
13.10,21.72,22.63,148
12.64,21.31,22.00,129
12.47,21.59,21.77,125
12.26,21.94,20.95,110
12.16,21.93,19.65,95
11.74,22.27,18.36,86
10.43,23.02,17.04,80
9.26,23.68,15.01,74
8.30,24.11,11.76,64
6.47,24.60,7.88,60
4.18,25.71,5.15,57
1.41,26.33,3.72,50
-2.86,26.60,1.08,46
-7.62,26.08,-0.52,44
-12.20,27.02,-0.44,35
-17.31,30.04,-0.81,28
-20.98,33.61,-2.01,29
-23.74,37.58,-2.45,27
-26.02,40.89,-4.47,26
-27.04,42.90,-7.21,23
-26.89,44.80,-10.04,27
-26.60,46.34,-13.00,31
-26.93,47.96,-14.06,25
-28.22,49.15,-13.70,34
-29.91,49.88,-13.11,39
-30.90,50.26,-12.65,36
-31.06,50.06,-13.41,28
-30.72,49.57,-14.87,28
-30.44,49.35,-15.81,28
-30.51,49.47,-16.33,24
-31.21,49.94,-15.84,26
-31.91,50.63,-14.88,25
-32.16,51.04,-14.46,29
-31.89,50.98,-15.13,34
-31.39,51.10,-16.39,36
-31.09,51.63,-16.82,33
-31.16,52.33,-16.65,28
-31.48,52.94,-16.21,29
-31.91,53.21,-15.81,26
-32.39,53.16,-15.71,26
-32.73,53.08,-15.70,22
-32.84,53.16,-15.72,22
-32.75,53.23,-16.06,25
-32.78,53.36,-16.44,19
-33.00,53.66,-16.34,14
-33.41,54.01,-16.05,15
-33.72,54.17,-15.71,13
-33.69,54.07,-15.77,10
-33.46,53.88,-16.43,14
-33.47,53.74,-16.57,14
-33.71,53.58,-16.39,13
-33.94,53.53,-16.04,10
-33.96,53.46,-15.97,14
-33.89,53.27,-16.01,12
-33.77,52.98,-16.09,9
-33.66,52.65,-16.37,6
-33.82,52.37,-16.26,8
-34.18,52.31,-15.69,19
-34.44,52.29,-15.10,36
-34.45,52.16,-15.06,38
-34.66,51.80,-14.89,38
-34.91,51.38,-14.58,45
-35.14,51.15,-14.35,64
-35.78,51.24,-12.72,56
-35.90,51.37,-10.87,78
-34.50,50.81,-11.45,100
-32.41,49.51,-13.09,125
-31.84,47.47,-12.53,133
-33.75,44.62,-8.84,109
-35.01,41.06,-5.58,133
-32.50,37.53,-6.19,208
-28.69,34.11,-6.81,220
-25.13,30.88,-6.25,288
-22.51,27.34,-3.71,262
-20.50,22.74,0.01,242
-17.81,18.48,2.72,232
-14.74,15.20,5.70,251
-10.80,11.21,8.85,261
-6.76,7.45,9.30,308
-1.72,8.07,8.62,328
-0.80,10.67,12.55,352
-0.64,9.86,16.65,313
3.39,9.03,14.88,304
5.99,10.21,15.24,293
4.39,10.14,19.36,288
3.40,11.12,22.49,286
6.13,12.77,22.96,263
10.16,10.93,21.16,338
13.00,11.65,20.52,329
12.34,12.33,22.12,350
10.51,14.10,24.75,349
10.01,14.57,25.56,326
10.91,13.50,25.89,353
14.03,11.20,24.03,328
16.69,10.88,22.82,325
16.77,11.06,23.50,302
14.91,13.38,26.07,307
13.82,14.74,27.53,293
14.89,13.82,25.92,252
17.67,12.51,23.75,223
18.87,12.51,23.42,198
18.89,12.99,23.62,217
18.61,14.38,23.26,191
17.89,15.34,23.05,161
16.83,16.46,23.19,143
16.14,17.48,22.97,140
15.85,18.15,22.06,126
15.49,18.93,20.82,112
14.84,20.05,19.63,96
14.03,21.59,17.88,86
12.97,24.01,15.70,85
11.62,26.75,13.00,83
9.19,29.78,10.12,70
6.22,33.31,7.98,67
2.28,36.88,6.12,62
-2.48,39.70,3.32,54
-7.55,42.89,1.74,47
-12.08,45.92,1.49,41
-14.24,49.29,0.25,40
-14.86,53.13,-3.23,36
-15.56,56.73,-6.02,32
-17.09,59.94,-6.16,32
-17.60,62.53,-6.45,26
-15.99,63.99,-9.53,22
-14.10,64.61,-12.71,23
-13.04,64.97,-14.16,22
-13.16,65.51,-14.02,20
-13.96,65.91,-13.12,24
-14.78,66.16,-12.78,27
-15.56,66.06,-12.50,27
-16.00,65.65,-12.71,25
-15.91,65.21,-13.41,27
-15.64,64.65,-14.36,29
-15.69,64.32,-15.11,34
-16.13,64.44,-14.74,33
-16.59,64.57,-14.62,31
-17.00,64.59,-14.72,24
-17.44,64.44,-14.57,20
-17.65,64.20,-14.87,19
-17.69,64.09,-15.39,20
-17.85,64.24,-15.37,22
-17.99,64.50,-15.08,21
-17.93,64.62,-15.27,20
-17.84,64.63,-15.66,21
-17.91,64.61,-15.74,18
-18.09,64.45,-15.76,20
-18.28,64.22,-15.98,20
-18.52,64.15,-15.85,16
-18.77,63.97,-15.79,12
-19.04,63.66,-15.94,18
-19.24,63.56,-16.04,20
-19.46,63.55,-15.95,15
-19.64,63.48,-15.97,16
-19.79,63.36,-16.13,17
-19.92,63.29,-16.09,18
-20.13,63.08,-15.95,16
-20.29,62.85,-15.79,16
-20.41,62.66,-15.38,32
-20.67,62.27,-14.50,29
-20.92,61.25,-13.75,38
-21.13,59.69,-13.80,41
-21.96,58.52,-12.18,39
-23.75,57.26,-8.94,33
-25.75,55.22,-5.46,33
-26.49,52.03,-2.80,46
-25.81,48.65,-1.39,62
-24.07,44.96,-1.49,84
-22.19,41.61,-0.98,109
-20.50,37.33,-0.46,136
-17.59,32.14,1.08,187
-15.28,27.91,1.60,197
-11.57,26.38,2.82,180
-8.10,24.31,4.53,205
-4.86,21.35,3.72,238
0.29,19.39,0.39,220
5.27,19.22,1.68,214
7.77,19.40,5.75,239
9.48,19.82,8.93,213
14.30,19.78,7.91,227
17.21,20.21,8.27,248
17.20,20.72,10.94,247
17.44,20.06,11.14,217
19.66,19.43,10.31,230
19.89,20.28,12.04,265
19.20,21.21,14.01,309
20.22,21.29,13.25,323
21.19,21.00,13.28,298
21.13,20.82,14.49,262
21.03,21.15,15.43,277
22.17,21.50,15.30,290
22.62,22.33,15.69,292
22.46,22.67,16.08,304
22.69,21.83,15.62,282
22.51,20.82,16.95,266
23.05,20.41,17.47,259
23.92,21.66,17.23,285
24.11,22.65,16.80,246
23.69,22.77,16.42,216
23.60,22.25,16.25,198
23.39,22.76,16.62,189
22.31,23.60,17.68,176
22.35,23.80,16.94,145
22.81,24.14,16.19,141
22.25,24.83,16.16,136
21.24,26.29,16.27,118
20.60,27.47,15.81,103
19.98,28.38,15.23,95
18.57,29.34,15.20,90
16.90,29.81,15.17,79
15.39,29.85,14.33,70
13.36,29.79,13.67,62
10.68,30.24,13.02,57
7.64,30.98,12.60,53
4.15,31.69,11.34,51
1.14,32.21,9.66,46
-1.72,32.43,7.75,44
-4.78,32.81,5.55,40
-7.68,33.53,3.66,41
-11.37,35.03,2.51,40
-16.18,38.17,1.74,34
-20.20,41.50,1.25,30
-22.90,45.05,0.45,33
-24.43,48.57,-1.47,32
-24.66,50.88,-4.33,29
-24.20,52.68,-7.86,49
-25.06,54.29,-10.59,46
-27.34,56.18,-9.25,41
-28.95,58.34,-7.22,46
-28.98,60.04,-7.18,52
-28.24,60.43,-8.64,46
-27.56,60.08,-10.89,37
-27.13,59.84,-12.95,34
-26.96,60.29,-13.97,33
-27.00,61.18,-14.18,30
-27.66,61.70,-13.97,24
-28.71,61.50,-13.72,26
-29.63,60.86,-13.94,26
-30.18,60.20,-14.42,22
-30.47,59.60,-14.89,21
-30.84,58.91,-15.18,21
-31.34,58.47,-15.08,18
-31.79,58.24,-14.63,13
-32.20,58.00,-14.41,13
-32.58,57.73,-13.94,17
-33.01,57.42,-13.47,14
-33.27,57.29,-13.14,16
-33.05,57.37,-13.20,21
-32.83,57.30,-13.34,20
-32.81,57.31,-13.23,14
-32.86,57.41,-12.93,14
-32.97,57.39,-12.66,15
-33.14,57.31,-12.45,12
-33.21,57.16,-12.31,24
-33.27,56.98,-12.26,25
-33.40,56.66,-11.99,27
-33.55,56.17,-12.05,23
-33.80,55.74,-11.87,29
-34.05,55.45,-11.33,32
-34.30,55.25,-10.43,37
-34.59,55.28,-8.78,32
-35.26,55.11,-5.21,57
-36.14,54.25,-1.98,87
-35.89,50.23,1.23,79
-33.45,46.67,2.50,115
-30.43,42.94,1.66,151
-26.68,39.81,2.02,167
-22.83,36.65,5.33,192
-20.66,33.40,8.74,239
-18.11,29.79,11.89,280
-15.14,24.81,12.41,314
-10.80,20.24,11.74,277
-5.89,20.71,13.07,261
-3.19,21.05,16.40,273
-3.22,21.22,19.54,269
-3.12,20.67,21.14,392
-1.16,20.29,22.39,386
1.91,20.91,22.39,359
3.91,21.43,22.09,328
4.68,22.14,22.51,318
5.08,22.64,21.97,321
5.26,23.29,22.08,345
4.49,23.88,23.83,362
5.49,23.25,22.36,352
8.12,21.03,19.73,318
8.40,20.24,19.90,351
8.16,24.22,21.52,346
6.95,22.18,21.82,302
6.29,20.04,20.73,300
7.14,19.05,21.19,288
9.33,19.24,20.82,275
11.09,19.53,19.82,281
11.01,19.92,19.88,315
9.88,20.92,20.54,289
8.62,21.58,21.92,259
8.92,22.34,21.88,257
9.92,22.09,21.37,280
11.30,20.80,20.69,265
12.19,21.02,20.93,300
11.73,22.48,22.15,290
11.89,23.98,22.04,274
12.36,23.33,21.47,261
14.02,22.14,20.80,251
15.39,21.81,20.81,471
14.89,24.07,22.44,628
13.37,21.56,23.86,613
13.21,18.34,23.10,521
15.62,15.94,21.25,457
18.23,16.24,20.14,430
18.80,16.92,20.17,459
18.20,18.86,19.86,475
16.14,19.86,20.53,518
14.35,20.07,21.96,427
15.32,20.34,21.34,451
18.93,18.68,18.70,377
20.39,18.92,18.43,390
19.17,19.59,20.04,434
17.87,21.08,21.29,495
17.53,21.92,22.12,476
18.21,20.50,21.50,447
21.12,20.27,20.11,412
21.97,20.66,19.75,422
20.75,21.19,20.81,448
19.01,21.52,22.32,399
18.98,23.07,22.77,356
19.79,22.88,22.04,343
21.60,20.96,20.79,349
23.20,21.40,20.22,468
22.40,23.05,21.31,450
20.52,23.93,22.93,396
19.96,22.94,22.74,373
21.24,22.04,22.66,341
22.82,22.23,22.34,327
23.60,22.42,22.19,407
23.80,23.48,21.76,390
22.70,23.73,22.75,368
22.06,25.12,23.77,309
22.48,24.66,23.04,298
24.18,23.39,22.22,279
25.41,23.44,21.91,286
25.16,24.42,22.51,377
24.12,25.59,23.27,340
23.18,25.78,23.95,389
23.36,25.92,24.19,362
25.16,24.85,23.27,341
27.38,24.77,21.78,327
27.24,25.42,22.10,352
25.38,25.96,23.50,340
24.13,26.79,24.77,340
24.76,26.87,24.17,355
27.12,25.33,22.52,324
28.89,24.78,21.18,355
28.63,25.31,21.73,405
26.66,26.58,23.57,372
25.65,28.05,24.07,391
25.52,27.30,23.83,341
26.92,25.91,23.51,344
29.39,25.75,22.13,306
30.01,26.14,21.74,367
28.40,27.46,23.07,337
26.36,27.62,24.33,371
26.10,27.54,24.27,402
27.42,27.22,23.55,367
29.24,25.90,22.61,323
30.45,26.04,22.21,311
29.60,27.64,23.26,403
27.90,28.32,24.40,351
27.49,27.69,24.12,327
28.83,27.43,23.89,344
30.62,27.53,23.06,328
30.92,28.35,23.21,322
30.27,28.99,23.25,281
29.33,28.92,23.43,287
28.51,29.27,24.71,308
28.36,29.76,25.19,280
29.59,29.31,24.30,304
30.90,29.32,23.48,274
31.01,29.43,23.42,271
30.14,30.66,24.26,272
28.97,31.01,25.01,260
28.66,30.40,25.08,243
29.80,29.83,24.96,256
31.46,29.97,24.18,276
31.65,30.34,24.08,289
30.81,31.14,24.36,297
29.73,30.97,24.74,270
29.46,31.53,25.44,270
30.03,31.41,24.89,249
30.84,31.25,24.56,228
30.70,31.37,24.86,260
30.61,32.04,25.09,352
30.28,32.77,25.45,307
29.88,32.75,25.84,276
30.28,32.88,25.80,250
30.72,32.90,25.74,222
31.26,32.63,25.45,274
31.43,33.21,25.28,277
30.75,33.20,25.54,252
30.41,33.65,25.93,248
30.18,33.92,26.22,226
30.17,34.21,26.59,210
30.73,34.54,26.19,203
31.22,34.23,25.58,221
31.12,34.25,25.78,230
30.49,34.62,26.47,194
30.02,35.26,27.07,197
30.32,35.53,26.77,184
30.86,35.23,26.46,169
31.35,35.07,26.44,142
31.52,35.33,26.26,118
31.58,35.44,25.74,111
31.56,35.50,25.14,98
31.17,35.36,24.39,87
30.93,35.01,23.24,82
30.78,34.76,21.59,73
30.34,34.51,19.32,68
29.55,34.29,16.88,66
28.15,34.20,14.61,64
26.27,34.16,12.06,72
24.10,34.25,9.33,63
21.18,35.02,7.74,77
17.41,36.88,6.24,88
13.35,38.98,5.12,72
8.81,40.73,4.20,65
3.91,42.65,2.29,64
-0.81,44.79,1.53,57
-4.46,47.88,0.69,58
-7.26,51.62,-0.14,50
-9.37,55.08,-0.58,46
-11.09,58.54,-0.89,39
-12.19,61.58,-1.62,37
-12.59,64.17,-2.88,29
-12.57,66.21,-4.77,27
-12.79,67.52,-6.57,28
-13.81,68.09,-7.79,33
-15.36,68.54,-9.02,31
-16.75,69.21,-9.80,25
-17.87,70.23,-10.24,22
-19.04,71.29,-10.67,18
-20.54,72.15,-10.75,24
-22.22,72.39,-9.96,22
-23.60,71.86,-9.69,26
-23.99,70.84,-10.58,27
-23.71,70.05,-12.00,23
-23.32,69.73,-13.09,21
-23.24,69.71,-13.23,19
-23.49,69.82,-13.07,20
-23.87,69.80,-12.66,22
-24.02,69.44,-12.88,20
-24.09,69.00,-13.43,23
-24.30,68.63,-13.61,26
-24.47,68.32,-14.00,26
-24.75,68.24,-14.40,27
-25.50,68.25,-13.84,30
-26.13,68.11,-13.35,28
-26.33,67.84,-13.45,25
-26.43,67.19,-13.67,25
-26.60,66.54,-14.06,22
-26.86,66.01,-13.97,20
-27.00,65.63,-14.15,21
-27.10,65.50,-14.00,23
-27.20,65.44,-13.73,19
-27.17,65.30,-13.65,19
-27.03,65.10,-13.70,20
-26.90,64.91,-13.79,24
-26.91,64.87,-13.54,28
-27.07,64.78,-13.21,27
-27.19,64.70,-13.01,27
-27.20,64.65,-12.72,27
-27.17,64.41,-12.60,28
-26.91,64.04,-12.85,33
-26.59,63.76,-13.30,34
-26.52,63.57,-13.53,34
-26.81,63.78,-12.93,39
-27.61,63.99,-11.62,35
-27.97,64.10,-10.95,44
-27.62,64.09,-11.34,52
-27.08,63.93,-11.96,46
-26.85,63.71,-12.13,44
-26.90,63.46,-12.11,39
-27.11,63.22,-11.73,37
-27.29,62.92,-11.45,44
-27.43,62.53,-11.46,50
-27.50,62.44,-11.16,64
-27.50,62.88,-9.36,56
-26.98,58.88,-8.59,67
-25.63,55.84,-10.90,71
-25.02,53.37,-11.11,63
-26.31,52.24,-7.71,97
-26.68,48.39,-3.99,106
-23.51,44.57,-3.80,110
-20.75,40.23,-6.45,110
-16.15,37.15,-5.58,144
-13.00,36.61,-1.79,129
-9.97,34.39,2.14,144
-6.20,32.60,4.60,165
-1.84,30.45,7.86,182
1.91,28.61,11.34,216
3.26,29.58,15.04,219
3.96,29.18,18.63,243
6.33,26.07,20.07,243
10.28,23.54,20.49,320
14.95,23.97,21.04,358
16.61,24.25,22.16,326
15.54,24.53,24.55,309
13.68,24.90,27.88,290
14.65,23.59,27.91,331
19.40,22.01,25.68,310
22.80,20.61,23.03,308
22.28,21.48,23.52,388
18.40,22.98,27.06,356
16.19,23.34,29.48,318
19.18,23.67,26.52,322
23.83,20.67,22.74,283
25.92,18.86,19.54,253
25.40,19.54,20.27,231
23.24,22.00,21.40,212
20.82,23.29,22.25,197
20.08,23.74,21.28,178
20.60,24.17,20.04,166
20.52,24.22,19.44,163
20.59,24.55,18.43,147
20.98,24.86,16.57,131
21.05,24.95,14.26,117
20.35,25.13,12.00,105
19.17,25.80,9.87,94
17.59,27.20,7.63,84
15.07,29.43,5.46,77
12.63,31.39,2.79,73
10.60,32.51,-0.64,63
8.08,33.30,-4.23,64
5.23,34.57,-7.40,58
1.19,36.20,-9.91,56
-4.21,38.09,-10.85,47
-9.04,40.97,-9.33,43
-13.39,44.21,-6.35,41
-15.59,46.02,-4.78,37
-14.96,48.41,-6.81,35
-12.92,50.03,-10.37,33
-10.95,52.20,-13.80,38
-10.31,54.54,-14.76,32
-10.78,56.30,-14.51,30
-11.34,57.22,-14.92,25
-11.46,57.56,-16.14,21
-11.19,57.74,-17.79,18
-10.88,58.01,-18.94,18
-11.04,58.21,-19.23,19
-11.26,58.49,-19.08,24
-11.69,58.16,-18.92,22
-12.09,57.58,-19.01,20
-12.43,57.15,-19.29,16
-12.79,56.73,-19.45,12
-13.20,56.46,-19.49,10
-13.65,56.34,-19.24,16
-14.08,56.27,-18.91,16
-14.34,56.26,-18.64,17
-14.46,56.15,-18.61,18
-14.63,56.21,-18.17,18
-14.81,55.96,-17.69,20
-14.91,55.66,-17.58,15
-15.26,55.50,-16.59,18
-15.87,55.33,-14.84,14
-16.43,54.55,-12.82,33
-16.96,53.33,-10.12,38
-17.07,50.76,-7.03,59
-15.58,46.89,-5.90,70
-12.83,43.88,-6.14,92
-10.65,42.54,-4.83,139
-10.36,40.83,-1.13,162
-7.98,37.61,1.34,213
-5.17,34.26,2.13,244
-1.22,29.25,4.96,314
-0.97,27.93,8.90,375
-0.56,26.03,12.52,356
2.06,22.23,14.48,314
6.29,17.43,10.68,319
10.43,16.32,9.97,320
9.58,18.01,13.47,315
5.97,20.55,16.91,310
4.59,18.48,19.42,324
7.68,16.10,16.46,310
12.07,13.38,12.69,286
13.40,12.88,12.20,434
12.50,14.96,13.07,416
8.91,15.44,16.69,419
5.80,15.08,20.31,419
8.66,12.38,16.57,380
13.27,8.31,12.71,311
15.51,6.54,10.02,266
14.64,6.93,11.19,229
13.14,8.93,12.18,208
10.52,11.17,12.82,205
9.05,12.62,11.05,192
8.62,14.32,8.91,158
7.67,15.91,8.07,133
6.02,18.18,7.65,115
4.83,20.36,6.21,100
4.11,22.67,4.24,84
3.06,26.00,2.37,78
1.44,29.93,0.93,71
-0.88,34.28,-0.41,65
-3.64,38.77,-1.99,52
-5.89,42.77,-4.22,47
-7.76,46.37,-6.67,42
-9.53,50.29,-7.56,34
-10.09,54.03,-8.43,28
-9.37,54.01,-11.75,25
-8.47,54.77,-15.38,24
-8.49,54.39,-18.62,18
-9.79,54.46,-20.75,16
-11.85,55.09,-21.41,14
-13.32,56.24,-22.60,10
-14.65,57.98,-23.54,9
-16.02,59.77,-23.18,11
-16.48,60.90,-23.83,11
-16.01,61.62,-25.41,7
-15.36,62.08,-26.91,7
-14.94,62.43,-27.65,4
-14.67,62.80,-27.85,1
-14.55,62.92,-27.45,0
-14.64,62.61,-27.24,12
-14.51,61.92,-27.40,22
-13.95,61.48,-28.04,13
-13.45,61.62,-28.41,14
-13.44,61.51,-27.91,12
-13.86,61.29,-27.50,8
-14.33,61.15,-26.82,6
-14.61,61.04,-26.38,9
-14.82,60.75,-26.16,11
-15.00,60.53,-25.92,7
-15.14,60.37,-25.56,15
-15.19,60.25,-25.38,18
-15.32,60.19,-25.04,15
-15.49,60.01,-24.55,11
-15.67,60.01,-23.81,18
-15.93,59.77,-22.22,54
-16.28,58.93,-21.10,114
-17.84,57.87,-18.41,164
-20.63,57.72,-15.13,168
-23.03,55.16,-11.59,164
-22.81,49.75,-8.39,218
-19.57,44.30,-7.82,235
-15.90,39.90,-12.70,241
-11.92,34.61,-14.69,242
-8.16,29.16,-11.03,260
-5.48,25.15,-7.28,321
-1.31,21.95,-4.59,313
3.15,17.37,-5.61,305
5.54,15.56,-4.27,290
5.55,16.67,0.21,292
6.86,18.78,1.65,257
10.91,17.70,-1.24,244
13.23,17.66,-2.68,262
12.37,19.61,-0.59,279
9.28,21.76,2.38,233
7.38,22.25,3.95,192
8.35,22.43,2.64,167
10.23,21.43,1.15,140
11.49,20.20,0.73,116
12.45,20.00,0.21,100
12.90,20.27,-0.79,89
13.40,20.51,-3.37,76
12.95,21.05,-5.63,67
10.74,22.32,-7.34,62
8.23,24.64,-8.03,56
4.85,27.90,-9.44,48
2.47,31.09,-12.83,45
0.99,33.47,-16.21,45
-1.26,36.09,-19.65,41
-4.11,39.53,-22.50,37
-8.50,42.57,-23.48,37
-12.96,45.46,-21.74,35
-17.43,48.73,-18.48,31
-18.91,51.99,-17.19,33
-17.20,53.35,-19.74,32
-14.45,55.20,-23.21,30
-12.25,56.64,-26.30,30
-11.20,58.10,-27.31,28
-11.25,59.43,-26.97,28
-11.47,60.16,-26.40,21
-11.14,60.34,-26.71,21
-10.36,60.00,-27.87,26
-9.78,59.65,-28.80,23
-9.50,59.48,-29.09,19
-9.78,59.30,-28.68,23
-10.38,59.02,-28.21,21
-10.81,58.99,-27.73,15
-10.96,58.86,-27.52,18
-11.06,58.43,-27.76,27
-11.31,58.13,-27.82,26
-11.75,57.99,-27.20,24
-12.17,57.91,-26.77,27
-12.52,57.86,-26.41,28
-12.72,57.83,-26.14,24
-12.73,57.81,-26.14,23
-12.63,57.87,-26.18,19
-12.66,57.99,-26.03,22
-12.82,58.18,-25.53,21
-12.97,58.18,-25.27,24
-13.08,58.13,-25.25,24
-13.32,58.05,-24.86,21
-13.57,57.81,-24.64,24
-13.71,57.63,-24.75,26
-13.94,57.59,-24.51,26
-14.18,57.61,-24.13,23
-14.32,57.53,-23.93,23
-14.38,57.36,-23.92,24
-14.44,57.19,-24.02,26
-14.64,57.16,-23.90,31
-14.89,57.24,-23.61,31
-15.20,57.31,-23.16,30
-15.40,57.34,-22.96,25
-15.51,57.26,-22.89,24
-15.60,57.13,-22.82,24
-15.70,56.98,-22.83,23
-15.90,56.89,-22.79,18
-16.18,56.90,-22.49,20
-16.46,56.96,-22.14,20
-16.72,56.95,-21.95,20
-17.00,56.88,-21.67,18
-17.20,56.83,-21.47,21
-17.32,56.76,-21.33,25
-17.39,56.70,-21.20,19
-17.47,56.69,-21.15,22
-17.64,56.68,-20.85,21
-17.85,56.62,-20.61,21
-18.06,56.52,-20.42,20
-18.16,56.44,-20.45,25
-18.34,56.44,-20.36,26
-18.56,56.53,-20.02,22
-18.70,56.58,-19.88,20
-18.79,56.59,-19.75,22
-18.81,56.68,-19.70,21
-18.89,56.78,-19.58,18
-19.05,56.82,-19.46,20
-19.19,56.88,-19.31,22
-19.33,56.86,-19.10,25
-19.49,56.83,-18.99,24
-19.58,56.75,-18.85,25
-19.75,56.63,-18.62,24
-19.82,56.59,-18.39,22
-19.87,56.39,-18.29,29
-19.89,56.26,-18.19,32
-19.84,56.12,-17.99,25
-19.93,55.97,-17.50,20
-20.03,55.65,-16.61,29
-19.93,54.66,-16.26,35
-19.94,53.48,-15.81,30
-20.05,51.97,-14.92,33
-20.14,50.52,-13.53,30
-20.05,49.08,-10.93,28
-19.37,46.37,-9.42,20
-17.91,42.82,-9.39,28
-16.27,39.52,-9.54,34
-14.83,37.04,-8.04,29
-13.55,34.08,-5.08,29
-11.81,30.69,-2.38,41
-9.10,27.22,-1.29,51
-6.78,23.89,1.66,69
-4.32,20.66,5.20,70
-1.98,16.78,4.29,92
1.76,11.86,2.81,105
6.50,11.19,-0.00,100
10.27,12.81,3.30,96
10.63,15.10,6.91,126
10.88,16.57,9.07,179
13.03,17.02,8.81,156
14.95,17.18,9.14,226
15.28,18.09,12.06,235
16.68,18.45,12.75,284
19.56,18.41,11.64,297
21.56,17.70,10.94,299
21.96,17.87,11.54,360
21.02,17.60,12.65,345
20.06,18.07,14.67,309
20.84,18.39,14.83,279
23.61,19.13,13.60,250
25.63,18.62,12.38,232
26.05,18.30,12.55,271
25.15,18.57,13.95,268
24.60,19.73,15.59,279
26.34,20.43,14.30,242
28.15,20.23,13.62,251
28.97,20.20,13.78,280
28.51,20.73,14.29,271
27.70,21.73,15.97,328
27.64,22.89,16.78,296
29.52,22.23,15.04,264
31.50,21.47,14.09,261
32.61,20.86,13.53,271
32.50,22.56,14.28,273
31.04,25.18,15.64,257
29.92,23.11,16.84,255
30.98,21.25,14.75,245
33.39,20.57,13.04,220
34.28,20.60,13.09,292
33.45,22.88,14.02,327
32.07,21.05,14.81,311
31.03,20.74,15.78,308
32.18,21.97,15.42,308
34.41,21.00,13.33,384
35.04,20.84,13.34,390
34.46,20.00,13.60,387
33.36,22.37,16.00,397
32.44,21.66,17.31,428
32.84,20.75,16.81,408
35.94,19.05,13.86,386
36.96,17.88,12.81,437
36.25,18.46,13.80,627
33.12,19.01,17.12,609
31.37,16.28,18.20,552
32.93,15.84,16.28,457
36.31,15.01,13.32,401
36.84,13.37,12.18,421
36.03,14.77,12.09,418
31.82,15.19,16.09,426
29.74,14.76,18.44,450
32.22,14.04,14.97,444
36.40,11.14,10.86,404
36.71,9.84,9.54,390
34.77,12.52,11.39,405
30.28,14.79,15.36,468
29.68,12.06,15.78,440
33.03,9.67,11.74,402
36.29,6.79,8.17,350
35.49,6.56,8.76,389
32.90,10.60,10.81,476
28.46,11.48,14.79,476
28.33,9.54,13.67,570
32.00,7.99,10.20,520
35.26,5.43,7.13,460
34.66,4.88,7.14,473
31.65,9.00,9.91,553
27.11,9.37,13.95,580
27.45,7.79,13.21,547
31.20,6.16,9.53,492
34.46,3.11,6.39,485
33.80,2.59,5.69,486
30.57,6.89,9.09,484
25.97,7.92,13.10,557
26.73,4.16,11.79,515
31.10,0.97,8.02,446
34.47,-1.15,4.84,386
33.06,-0.73,6.31,446
29.61,3.86,9.47,538
25.13,3.69,13.51,739
25.64,1.59,12.09,648
29.99,-0.15,8.37,571
33.02,-2.12,5.44,501
31.64,-1.15,6.33,611
28.02,0.96,9.72,585
23.52,-0.51,13.34,551
25.15,-1.45,10.37,565
29.64,-2.86,6.49,548
31.38,-4.76,4.49,525
29.82,-3.24,7.32,499
25.85,0.25,11.18,461
24.04,-0.73,12.60,443
26.31,-1.72,9.33,401
30.04,-3.30,6.24,378
31.05,-2.99,6.74,394
30.28,-1.39,7.46,392
27.27,-0.89,10.77,420
25.79,-2.35,10.97,428
27.92,-3.79,9.23,392
30.75,-3.96,7.38,370
30.92,-3.52,7.25,412
28.36,0.09,9.78,425
25.39,-0.93,12.68,497
25.77,-1.33,11.46,422
29.30,-2.29,9.19,465
31.18,-3.20,7.83,431
31.08,-2.80,8.22,488
28.69,0.75,10.61,448
26.08,-0.22,13.07,457
26.59,-0.96,11.62,464
30.44,-2.13,9.10,438
31.98,-2.25,8.14,464
31.24,-0.43,9.35,548
28.13,-0.69,12.30,531
26.61,-0.98,12.96,458
28.14,-0.86,11.82,401
30.84,-1.77,10.03,362
31.75,-2.02,9.27,374
31.12,0.30,9.61,375
27.87,-0.08,12.68,355
26.78,0.07,12.77,382
29.17,0.61,10.78,366
31.14,-0.39,9.37,330
31.39,-0.10,9.79,342
29.80,1.99,11.27,342
27.89,3.55,12.44,383
27.61,4.40,12.36,350
28.42,4.53,11.97,310
29.17,5.15,12.33,277
29.70,5.49,12.18,276
29.36,6.72,12.96,287
28.63,8.01,13.61,262
28.68,8.78,13.35,308
28.88,8.98,13.70,299
28.87,9.68,14.52,266
28.69,10.26,15.18,261
28.96,11.06,14.95,260
29.21,11.61,14.93,231
29.34,12.34,15.03,204
29.36,12.99,15.12,206
29.37,13.42,15.12,187
28.63,14.12,16.04,173
27.88,14.71,16.82,149
27.75,14.97,17.00,134
27.70,15.18,17.14,127
27.52,15.62,17.11,117
27.22,16.03,16.69,106
26.87,16.46,15.99,116
25.90,17.43,15.55,152
23.95,18.72,15.47,137
21.70,19.21,15.20,121
19.63,19.38,14.34,109
18.18,19.98,13.83,98
16.96,20.75,12.98,88
15.65,21.19,11.24,83
14.10,21.77,9.97,78
11.80,22.91,9.54,68
8.93,24.46,8.83,64
6.61,26.08,7.68,62
4.75,27.66,5.81,54
2.14,29.48,4.26,45
-1.15,31.17,3.90,47
-4.88,33.22,3.86,44
-9.19,36.24,4.71,36
-13.16,40.00,6.53,34
-16.72,43.84,8.26,30
-18.47,43.64,7.67,21
-18.55,43.70,4.36,17
-18.47,43.16,0.97,19
-19.88,42.73,-0.74,18
-22.64,43.12,-0.11,14
-25.54,44.09,0.46,11
-27.95,45.54,-0.88,8
-29.50,46.28,-1.17,8
-30.84,46.98,-2.11,2
-31.63,47.04,-3.38,0
-32.12,47.02,-4.78,0
-32.48,47.67,-5.73,0
-32.73,48.57,-6.64,0
-33.09,49.54,-7.76,0
-33.79,50.48,-8.80,6
-34.36,52.37,-9.21,3
-35.25,53.37,-9.34,3
-36.49,53.71,-9.65,1
-37.50,53.79,-10.32,0
-37.90,54.01,-11.06,0
-38.27,54.09,-11.62,0
-39.08,54.28,-11.65,0
-40.02,54.69,-11.30,0
-40.89,55.28,-10.65,0
-41.38,55.68,-10.48,0
-41.68,55.85,-10.48,0
-41.92,55.54,-10.14,0
-42.04,55.13,-10.33,0
-42.08,54.76,-10.37,0
-42.32,54.49,-10.58,0
-42.96,54.85,-10.49,0
-43.92,55.76,-9.59,0
-44.99,56.84,-8.45,0
-45.60,57.17,-7.90,0
-45.67,56.96,-8.24,0
-45.44,56.66,-9.16,0
-45.13,56.57,-9.73,0
-45.03,56.71,-9.79,0
-45.24,56.67,-9.24,0
-45.51,56.48,-9.03,0
-45.69,56.31,-8.65,0
-45.56,56.33,-8.57,0
-45.20,56.37,-8.63,0
-44.78,56.44,-8.77,0
-44.44,56.69,-8.68,0
-44.22,56.88,-8.33,0
-43.97,57.01,-8.13,0
-43.67,57.15,-8.18,0
-43.32,57.33,-8.39,0
-43.14,57.49,-8.06,0
-42.94,57.58,-8.01,0
-42.66,57.57,-8.08,0
-42.39,57.53,-8.18,0
-42.15,57.49,-8.17,0
-41.86,57.44,-8.24,0
-41.54,57.42,-8.43,0
-41.29,57.38,-8.49,0
-41.10,57.36,-8.55,0
-40.98,57.41,-8.45,0
-40.92,57.45,-8.29,0
-40.81,57.46,-8.24,0
-40.67,57.39,-8.12,0
-40.46,57.31,-8.22,0
-40.21,57.34,-8.37,0
-40.07,57.45,-8.30,0
-39.91,57.64,-8.27,0
-39.73,57.87,-8.29,0
-39.47,57.95,-7.89,0
-39.13,57.95,-8.17,0
-38.85,58.02,-8.47,0
-38.75,58.09,-8.15,0
-38.53,57.95,-8.27,0
-38.11,57.90,-8.60,0
-37.77,57.80,-8.69,0
-37.61,57.70,-8.89,0
-37.53,57.62,-8.73,0
-37.30,57.39,-8.89,0
-37.07,57.24,-9.26,0
-36.97,57.23,-9.19,0
-36.89,57.21,-9.22,1
-36.77,57.10,-9.29,1
-36.63,57.03,-9.36,2
-36.45,57.01,-9.51,0
-36.22,57.10,-9.63,0
-36.02,57.18,-9.76,0
-35.87,57.34,-9.86,0
-35.74,57.49,-9.91,0
-35.67,57.53,-9.90,0
-35.63,57.59,-9.92,0
-35.54,57.68,-10.03,0
-35.45,57.56,-10.06,0
-35.36,57.51,-10.22,0
-35.26,57.61,-10.21,0
-35.13,57.73,-10.32,0
-34.96,57.68,-10.17,0
-34.83,57.62,-10.31,0
-34.67,57.74,-10.33,0
-34.49,57.89,-10.36,0
-34.28,57.85,-10.39,0
-34.05,57.82,-10.59,0
-33.85,57.90,-10.67,0
-33.68,57.90,-10.73,0
-33.53,57.88,-10.81,0
-33.40,57.91,-10.97,0
-33.33,57.91,-10.90,0
-33.25,57.82,-11.05,0
-33.16,57.83,-11.09,1
-33.04,57.75,-11.12,0
-32.88,57.63,-11.30,0
-32.72,57.62,-11.40,0
-32.62,57.60,-11.41,0
-32.52,57.55,-11.47,0
-32.35,57.56,-11.55,0
-32.16,57.49,-11.63,0
-32.06,57.44,-11.70,0
-31.99,57.41,-11.66,0
-31.90,57.32,-11.71,0
-31.75,57.29,-11.81,0
-31.60,57.27,-11.87,0
-31.44,57.26,-11.96,0
-31.29,57.27,-12.03,0
-31.16,57.29,-12.01,0
-31.04,57.28,-12.08,0
-30.94,57.28,-12.15,0
-30.85,57.29,-12.16,0
-30.69,57.16,-12.26,0
-30.56,57.10,-12.41,0
-30.51,57.09,-12.35,0
-30.41,56.93,-12.40,0
-30.29,56.83,-12.55,0
-30.25,56.85,-12.58,0
-30.22,56.81,-12.55,0
-30.14,56.68,-12.70,0
-30.07,56.69,-12.81,0
-30.06,56.76,-12.75,0
-29.93,56.77,-12.79,0
-29.79,56.77,-12.99,0
-29.79,56.80,-12.95,0
-29.76,56.78,-12.96,0
-29.64,56.73,-13.13,1
-29.61,56.74,-13.19,1
-29.62,56.72,-13.10,1
-29.55,56.61,-13.17,0
-29.46,56.54,-13.32,0
-29.44,56.54,-13.31,0
-29.42,56.53,-13.30,0
-29.32,56.42,-13.31,0
-29.25,56.38,-13.37,0
-29.22,56.36,-13.32,0
-29.12,56.29,-13.40,0
-29.08,56.26,-13.44,0
-29.10,56.22,-13.36,0
-29.03,56.15,-13.43,0
-28.95,56.15,-13.46,0
-28.92,56.17,-13.28,0
-28.81,56.13,-13.36,0
-28.70,56.17,-13.50,0
-28.69,56.24,-13.36,0
-28.63,56.15,-13.37,0
-28.55,56.10,-13.53,0
-28.58,56.10,-13.44,0
-28.58,56.02,-13.45,0
-28.55,56.00,-13.55,0
-28.57,56.00,-13.46,0
-28.54,55.96,-13.50,0
-28.50,55.91,-13.56,0
-28.52,55.92,-13.51,0
-28.48,55.90,-13.53,0
-28.43,55.90,-13.56,0
-28.43,55.90,-13.52,0
-28.38,55.84,-13.53,1
-28.35,55.81,-13.63,0
-28.39,55.81,-13.52,0
-28.37,55.79,-13.55,0
-28.29,55.83,-13.69,0
-28.32,55.85,-13.58,0
-28.28,55.85,-13.48,0
-28.26,55.87,-13.61,0
-28.27,55.89,-13.53,0
-28.27,55.84,-13.54,0
-28.21,55.85,-13.63,0
-28.23,55.87,-13.59,0
-28.23,55.81,-13.56,0
-28.16,55.76,-13.67,0
-28.14,55.79,-13.69,0
-28.16,55.78,-13.60,0
-28.12,55.70,-13.63,0
-28.10,55.69,-13.65,0
-28.11,55.67,-13.59,0
-28.11,55.67,-13.56,0
-28.09,55.73,-13.55,0
-28.08,55.75,-13.51,0
-28.05,55.74,-13.55,0
-28.03,55.76,-13.54,0
-27.99,55.74,-13.52,0
-27.95,55.68,-13.60,0
-27.97,55.72,-13.56,0
-27.99,55.71,-13.52,0
-27.95,55.69,-13.63,0
-27.99,55.78,-13.61,0
-28.02,55.77,-13.57,0
-27.99,55.69,-13.68,0
-28.01,55.71,-13.66,0
-28.02,55.72,-13.63,0
-27.97,55.71,-13.67,0
-27.94,55.72,-13.68,0
-27.93,55.73,-13.66,0
-27.90,55.70,-13.72,0
-27.95,55.70,-13.72,0
-27.98,55.68,-13.68,0
-27.96,55.65,-13.73,0
-27.95,55.68,-13.74,0
-27.95,55.67,-13.73,0
